0.058651023,0.244379282,0.469208193,1.04594326,0.078201365,0.263929605,0.400782013,0.410557175,0.156402731,0.078201365,0.224828935,0.733137846,1.065493703,0.478983355,0.195503416,0.224828935
0.068426199,1.28054738,0.821114349,1.857282543,1.642228699,2.2091887,2.551319599,2.326490641,1.182795639,1.202346087,1.28054738,1.867057705,1.42717495,1.622678375,1.173020482,0.625610924
0.058651023,1.358748794,0.801564026,1.935483837,1.681329346,2.258064508,2.629521132,2.336265802,1.212121248,1.202346087,1.300097704,1.847507381,1.397849445,1.65200386,1.231671572,0.635386086
0.068426199,1.329423308,0.801564026,1.964809418,1.603128052,2.170088053,2.482893467,2.238514185,1.143694997,1.133919835,1.260997057,1.769305944,1.319648147,1.642228699,1.192570925,0.625610924
0.068426199,1.28054738,0.782013655,1.915933514,1.505376339,2.052785873,2.346040964,2.140762568,1.085044022,1.085044022,1.212121248,1.681329346,1.251221895,1.632453537,1.143694997,0.6060606
0.058651023,1.241446733,0.772238493,1.867057705,1.417399788,1.935483837,2.218963861,2.043010712,1.036168098,1.026392937,1.153470159,1.603128052,1.182795639,1.554252148,1.085044022,0.576735067
0.068426199,1.192570925,0.752688169,1.788856268,1.329423308,1.827957058,2.101661682,1.955034256,0.98729229,0.98729229,1.10459435,1.515151501,1.143694997,1.524926662,1.04594326,0.576735067
0.068426199,1.173020482,0.762463331,1.730205297,1.251221895,1.730205297,1.994134903,1.83773222,0.967741871,0.938416386,1.055718422,1.446725368,1.124144673,1.466275692,0.98729229,0.557184744
0.068426199,1.124144673,0.772238493,1.720430136,1.182795639,1.642228699,1.915933514,1.749755621,0.957966709,0.899315739,1.006842613,1.368523955,1.065493703,1.42717495,0.948191547,0.527859211
0.068426199,1.075268865,0.782013655,1.720430136,1.114369512,1.554252148,1.857282543,1.69110465,0.918866062,0.85043993,0.957966709,1.300097704,1.016617775,1.388074284,0.899315739,0.508308887
0.068426199,1.04594326,0.752688169,1.739980459,1.055718422,1.485826015,1.769305944,1.642228699,0.889540577,0.821114349,0.918866062,1.241446733,0.98729229,1.348973632,0.869990253,0.498533726
0.068426199,0.997067451,0.733137846,1.681329346,0.98729229,1.407624626,1.681329346,1.583577728,0.869990253,0.782013655,0.879765415,1.182795639,0.938416386,1.319648147,0.840664673,0.488758564
0.068426199,0.967741871,0.703812313,1.622678375,0.928641224,1.33919847,1.59335289,1.505376339,0.830889511,0.733137846,0.830889511,1.124144673,0.899315739,1.309872866,0.811339188,0.469208193
0.068426199,0.928641224,0.674486828,1.573802567,0.879765415,1.260997057,1.524926662,1.436950111,0.791788864,0.703812313,0.791788864,1.075268865,0.860215092,1.28054738,0.811339188,0.459433031
0.068426199,0.899315739,0.674486828,1.573802567,0.830889511,1.212121248,1.45650053,1.368523955,0.762463331,0.674486828,0.752688169,1.036168098,0.830889511,1.22189641,0.811339188,0.439882708
0.058651023,0.869990253,0.664711666,1.534701824,0.782013655,1.133919835,1.397849445,1.300097704,0.791788864,0.654936409,0.713587475,0.977517128,0.791788864,1.173020482,0.782013655,0.439882708
0.058651023,0.840664673,0.635386086,1.495601177,0.742913008,1.085044022,1.329423308,1.270772219,0.772238493,0.625610924,0.694037151,0.938416386,0.752688169,1.173020482,0.752688169,0.430107546
0.058651023,0.811339188,0.625610924,1.42717495,0.703812313,1.026392937,1.270772219,1.251221895,0.752688169,0.596285439,0.664711666,0.899315739,0.723362684,1.153470159,0.723362684,0.439882708
0.058651023,0.772238493,0.654936409,1.42717495,0.664711666,0.977517128,1.241446733,1.22189641,0.733137846,0.566959906,0.645161247,0.860215092,0.68426199,1.10459435,0.723362684,0.449657869
0.058651023,0.733137846,0.645161247,1.397849445,0.625610924,0.928641224,1.182795639,1.182795639,0.723362684,0.547409582,0.615835762,0.821114349,0.664711666,1.065493703,0.68426199,0.449657869
0.058651023,0.694037151,0.625610924,1.417399788,0.596285439,0.899315739,1.124144673,1.143694997,0.694037151,0.518084049,0.576735067,0.782013655,0.635386086,1.065493703,0.694037151,0.459433031
0.058651023,0.674486828,0.6060606,1.388074284,0.566959906,0.869990253,1.075268865,1.094819183,0.68426199,0.498533726,0.547409582,0.742913008,0.615835762,1.036168098,0.674486828,0.459433031
0.058651023,0.645161247,0.615835762,1.368523955,0.53763442,0.85043993,1.04594326,1.085044022,0.674486828,0.469208193,0.527859211,0.713587475,0.586510229,0.98729229,0.645161247,0.469208193
0.058651023,0.625610924,0.6060606,1.319648147,0.508308887,0.821114349,1.006842613,1.075268865,0.654936409,0.449657869,0.498533726,0.694037151,0.566959906,0.967741871,0.615835762,0.488758564
0.058651023,0.596285439,0.596285439,1.270772219,0.478983355,0.782013655,1.026392937,1.065493703,0.654936409,0.430107546,0.488758564,0.674486828,0.557184744,0.977517128,0.596285439,0.498533726
0.058651023,0.586510229,0.586510229,1.270772219,0.449657869,0.752688169,0.997067451,1.036168098,0.664711666,0.410557175,0.469208193,0.645161247,0.527859211,0.957966709,0.576735067,0.488758564
0.058651023,0.566959906,0.557184744,1.251221895,0.430107546,0.733137846,0.967741871,0.997067451,0.68426199,0.391006832,0.449657869,0.625610924,0.518084049,0.977517128,0.557184744,0.488758564
0.068426199,0.547409582,0.547409582,1.212121248,0.410557175,0.694037151,0.9090909,0.957966709,0.703812313,0.371456504,0.430107546,0.615835762,0.508308887,0.98729229,0.527859211,0.478983355
0.058651023,0.53763442,0.547409582,1.182795639,0.391006832,0.664711666,0.889540577,0.928641224,0.752688169,0.361681342,0.410557175,0.596285439,0.488758564,0.967741871,0.518084049,0.498533726
0.058651023,0.527859211,0.547409582,1.182795639,0.371456504,0.645161247,0.85043993,0.899315739,0.782013655,0.351906157,0.391006832,0.576735067,0.469208193,0.948191547,0.508308887,0.498533726
0.058651023,0.527859211,0.566959906,1.241446733,0.351906157,0.625610924,0.801564026,0.889540577,0.821114349,0.351906157,0.371456504,0.547409582,0.449657869,0.918866062,0.488758564,0.488758564
0.058651023,0.518084049,0.586510229,1.241446733,0.332355833,0.596285439,0.772238493,0.879765415,0.860215092,0.332355833,0.361681342,0.527859211,0.439882708,0.879765415,0.478983355,0.469208193
0.058651023,0.498533726,0.576735067,1.212121248,0.322580624,0.576735067,0.733137846,0.899315739,0.860215092,0.322580624,0.361681342,0.508308887,0.420332336,0.9090909,0.459433031,0.469208193
0.068426199,0.488758564,0.576735067,1.182795639,0.3030303,0.547409582,0.713587475,0.879765415,0.879765415,0.312805462,0.351906157,0.478983355,0.400782013,0.869990253,0.449657869,0.478983355
0.068426199,0.469208193,0.566959906,1.16324532,0.293255119,0.518084049,0.68426199,0.860215092,0.899315739,0.293255119,0.342130995,0.459433031,0.391006832,0.869990253,0.449657869,0.478983355
0.068426199,0.459433031,0.557184744,1.153470159,0.273704791,0.498533726,0.674486828,0.821114349,0.860215092,0.283479958,0.342130995,0.439882708,0.371456504,0.879765415,0.459433031,0.488758564
0.068426199,0.449657869,0.547409582,1.133919835,0.263929605,0.478983355,0.654936409,0.782013655,0.821114349,0.273704791,0.332355833,0.430107546,0.351906157,0.957966709,0.449657869,0.518084049
0.068426199,0.439882708,0.557184744,1.124144673,0.254154444,0.469208193,0.625610924,0.762463331,0.782013655,0.263929605,0.322580624,0.420332336,0.342130995,0.948191547,0.439882708,0.518084049
0.068426199,0.420332336,0.586510229,1.094819183,0.244379282,0.449657869,0.596285439,0.742913008,0.762463331,0.254154444,0.312805462,0.400782013,0.322580624,0.938416386,0.430107546,0.518084049
0.058651023,0.410557175,0.586510229,1.055718422,0.234604096,0.430107546,0.576735067,0.733137846,0.772238493,0.254154444,0.3030303,0.400782013,0.322580624,0.918866062,0.420332336,0.518084049
0.058651023,0.420332336,0.586510229,1.055718422,0.224828935,0.410557175,0.566959906,0.713587475,0.742913008,0.244379282,0.293255119,0.391006832,0.312805462,0.98729229,0.410557175,0.518084049
0.058651023,0.410557175,0.576735067,1.04594326,0.215053773,0.391006832,0.547409582,0.713587475,0.782013655,0.234604096,0.293255119,0.371456504,0.3030303,0.957966709,0.410557175,0.518084049
0.058651023,0.400782013,0.566959906,1.036168098,0.205278587,0.371456504,0.527859211,0.713587475,0.801564026,0.234604096,0.283479958,0.371456504,0.3030303,0.938416386,0.391006832,0.498533726
0.058651023,0.400782013,0.557184744,1.026392937,0.205278587,0.351906157,0.518084049,0.723362684,0.801564026,0.234604096,0.273704791,0.361681342,0.293255119,0.9090909,0.400782013,0.498533726
0.058651023,0.38123167,0.557184744,1.016617775,0.195503416,0.342130995,0.498533726,0.713587475,0.772238493,0.224828935,0.273704791,0.351906157,0.283479958,0.899315739,0.400782013,0.478983355
0.058651023,0.371456504,0.547409582,1.006842613,0.185728254,0.322580624,0.508308887,0.68426199,0.821114349,0.224828935,0.263929605,0.361681342,0.273704791,0.869990253,0.400782013,0.478983355
0.058651023,0.371456504,0.527859211,1.055718422,0.175953078,0.312805462,0.498533726,0.674486828,0.85043993,0.224828935,0.263929605,0.361681342,0.273704791,0.85043993,0.400782013,0.478983355
0.058651023,0.361681342,0.527859211,1.065493703,0.166177917,0.322580624,0.498533726,0.654936409,0.840664673,0.224828935,0.254154444,0.361681342,0.263929605,0.811339188,0.420332336,0.459433031
0.058651023,0.351906157,0.518084049,1.016617775,0.166177917,0.312805462,0.518084049,0.625610924,0.830889511,0.215053773,0.244379282,0.332355833,0.263929605,0.860215092,0.410557175,0.449657869
0.058651023,0.332355833,0.557184744,1.006842613,0.156402731,0.312805462,0.518084049,0.615835762,0.821114349,0.215053773,0.244379282,0.332355833,0.254154444,0.830889511,0.459433031,0.439882708
0.058651023,0.322580624,0.576735067,1.016617775,0.156402731,0.3030303,0.498533726,0.586510229,0.830889511,0.205278587,0.234604096,0.322580624,0.254154444,0.830889511,0.469208193,0.439882708
0.058651023,0.312805462,0.576735067,1.026392937,0.14662756,0.3030303,0.478983355,0.576735067,0.791788864,0.205278587,0.234604096,0.322580624,0.263929605,0.811339188,0.469208193,0.420332336
0.058651023,0.312805462,0.615835762,1.006842613,0.14662756,0.293255119,0.459433031,0.547409582,0.762463331,0.205278587,0.234604096,0.312805462,0.254154444,0.811339188,0.478983355,0.420332336
0.058651023,0.312805462,0.596285439,1.036168098,0.136852396,0.293255119,0.439882708,0.527859211,0.742913008,0.205278587,0.215053773,0.322580624,0.254154444,0.772238493,0.498533726,0.410557175
0.068426199,0.3030303,0.6060606,1.065493703,0.136852396,0.293255119,0.420332336,0.527859211,0.762463331,0.205278587,0.215053773,0.312805462,0.263929605,0.742913008,0.478983355,0.400782013
0.058651023,0.293255119,0.615835762,1.094819183,0.136852396,0.283479958,0.400782013,0.508308887,0.752688169,0.205278587,0.205278587,0.322580624,0.283479958,0.733137846,0.459433031,0.391006832
0.068426199,0.3030303,0.645161247,1.065493703,0.127077222,0.283479958,0.38123167,0.518084049,0.733137846,0.195503416,0.205278587,0.312805462,0.283479958,0.713587475,0.459433031,0.371456504
0.068426199,0.293255119,0.664711666,1.036168098,0.127077222,0.273704791,0.371456504,0.53763442,0.713587475,0.195503416,0.195503416,0.312805462,0.273704791,0.742913008,0.469208193,0.361681342
0.068426199,0.283479958,0.664711666,1.036168098,0.117302048,0.273704791,0.361681342,0.557184744,0.703812313,0.185728254,0.205278587,0.312805462,0.273704791,0.713587475,0.459433031,0.351906157
0.068426199,0.273704791,0.654936409,1.006842613,0.117302048,0.273704791,0.351906157,0.53763442,0.68426199,0.185728254,0.215053773,0.312805462,0.263929605,0.713587475,0.449657869,0.332355833
0.068426199,0.273704791,0.654936409,0.98729229,0.117302048,0.263929605,0.342130995,0.508308887,0.674486828,0.185728254,0.205278587,0.322580624,0.263929605,0.713587475,0.430107546,0.322580624
0.068426199,0.283479958,0.635386086,0.948191547,0.117302048,0.273704791,0.322580624,0.498533726,0.694037151,0.195503416,0.195503416,0.312805462,0.263929605,0.703812313,0.439882708,0.312805462
0.068426199,0.283479958,0.6060606,0.967741871,0.117302048,0.273704791,0.342130995,0.498533726,0.68426199,0.195503416,0.195503416,0.322580624,0.263929605,0.68426199,0.439882708,0.3030303
0.068426199,0.3030303,0.596285439,0.957966709,0.117302048,0.263929605,0.332355833,0.508308887,0.664711666,0.205278587,0.195503416,0.312805462,0.283479958,0.674486828,0.449657869,0.3030303
0.068426199,0.293255119,0.6060606,0.98729229,0.107526886,0.254154444,0.322580624,0.53763442,0.645161247,0.205278587,0.205278587,0.322580624,0.293255119,0.68426199,0.439882708,0.3030303
0.068426199,0.293255119,0.68426199,1.006842613,0.107526886,0.244379282,0.332355833,0.527859211,0.645161247,0.205278587,0.205278587,0.322580624,0.283479958,0.674486828,0.439882708,0.3030303
0.068426199,0.273704791,0.68426199,1.026392937,0.107526886,0.244379282,0.322580624,0.527859211,0.625610924,0.215053773,0.195503416,0.322580624,0.273704791,0.68426199,0.469208193,0.293255119
0.068426199,0.283479958,0.674486828,0.98729229,0.107526886,0.244379282,0.312805462,0.53763442,0.615835762,0.215053773,0.185728254,0.332355833,0.263929605,0.664711666,0.469208193,0.283479958
0.068426199,0.283479958,0.694037151,0.997067451,0.107526886,0.244379282,0.3030303,0.547409582,0.635386086,0.215053773,0.185728254,0.332355833,0.263929605,0.674486828,0.469208193,0.3030303
0.058651023,0.273704791,0.723362684,0.997067451,0.097751703,0.244379282,0.3030303,0.566959906,0.625610924,0.224828935,0.195503416,0.332355833,0.273704791,0.674486828,0.478983355,0.293255119
0.058651023,0.273704791,0.821114349,0.967741871,0.097751703,0.234604096,0.312805462,0.547409582,0.615835762,0.234604096,0.185728254,0.342130995,0.273704791,0.654936409,0.508308887,0.293255119
0.058651023,0.273704791,0.840664673,0.928641224,0.097751703,0.224828935,0.293255119,0.547409582,0.596285439,0.234604096,0.185728254,0.351906157,0.273704791,0.625610924,0.518084049,0.283479958
0.058651023,0.273704791,0.85043993,0.918866062,0.087976542,0.215053773,0.293255119,0.527859211,0.615835762,0.234604096,0.175953078,0.351906157,0.273704791,0.596285439,0.508308887,0.283479958
0.058651023,0.273704791,0.869990253,1.026392937,0.087976542,0.205278587,0.293255119,0.518084049,0.615835762,0.254154444,0.175953078,0.332355833,0.263929605,0.625610924,0.498533726,0.283479958
0.058651023,0.263929605,0.889540577,1.016617775,0.087976542,0.195503416,0.283479958,0.508308887,0.615835762,0.254154444,0.195503416,0.332355833,0.263929605,0.625610924,0.508308887,0.273704791
0.058651023,0.263929605,0.879765415,0.977517128,0.087976542,0.185728254,0.293255119,0.53763442,0.596285439,0.254154444,0.195503416,0.322580624,0.263929605,0.625610924,0.518084049,0.273704791
0.058651023,0.254154444,0.899315739,0.997067451,0.087976542,0.175953078,0.3030303,0.557184744,0.576735067,0.244379282,0.195503416,0.312805462,0.244379282,0.615835762,0.527859211,0.273704791
0.058651023,0.244379282,0.899315739,0.977517128,0.087976542,0.175953078,0.322580624,0.576735067,0.6060606,0.244379282,0.185728254,0.312805462,0.254154444,0.635386086,0.53763442,0.263929605
0.058651023,0.244379282,0.899315739,0.967741871,0.087976542,0.166177917,0.322580624,0.547409582,0.596285439,0.244379282,0.185728254,0.293255119,0.244379282,0.645161247,0.527859211,0.254154444
0.058651023,0.234604096,0.869990253,0.938416386,0.087976542,0.166177917,0.312805462,0.527859211,0.586510229,0.254154444,0.195503416,0.293255119,0.244379282,0.654936409,0.527859211,0.254154444
0.068426199,0.234604096,0.860215092,0.938416386,0.087976542,0.156402731,0.312805462,0.518084049,0.586510229,0.254154444,0.215053773,0.273704791,0.234604096,0.645161247,0.566959906,0.254154444
0.068426199,0.234604096,0.85043993,0.938416386,0.078201365,0.156402731,0.322580624,0.547409582,0.566959906,0.254154444,0.215053773,0.273704791,0.224828935,0.664711666,0.566959906,0.254154444
0.058651023,0.224828935,0.860215092,0.957966709,0.078201365,0.166177917,0.332355833,0.6060606,0.557184744,0.234604096,0.205278587,0.263929605,0.244379282,0.713587475,0.547409582,0.254154444
0.068426199,0.215053773,0.869990253,1.006842613,0.087976542,0.166177917,0.322580624,0.625610924,0.566959906,0.234604096,0.205278587,0.254154444,0.273704791,0.791788864,0.6060606,0.263929605
0.068426199,0.215053773,0.869990253,0.967741871,0.078201365,0.175953078,0.322580624,0.615835762,0.586510229,0.234604096,0.215053773,0.263929605,0.263929605,0.801564026,0.615835762,0.273704791
0.068426199,0.215053773,0.860215092,0.928641224,0.078201365,0.175953078,0.312805462,0.596285439,0.566959906,0.234604096,0.234604096,0.263929605,0.273704791,0.879765415,0.625610924,0.273704791
0.058651023,0.205278587,0.830889511,0.9090909,0.078201365,0.185728254,0.322580624,0.586510229,0.566959906,0.224828935,0.244379282,0.263929605,0.273704791,0.928641224,0.674486828,0.273704791
0.058651023,0.205278587,0.811339188,0.899315739,0.078201365,0.185728254,0.312805462,0.547409582,0.576735067,0.244379282,0.254154444,0.263929605,0.273704791,0.928641224,0.723362684,0.312805462
0.058651023,0.195503416,0.791788864,0.889540577,0.078201365,0.185728254,0.322580624,0.527859211,0.6060606,0.254154444,0.254154444,0.254154444,0.273704791,0.9090909,0.713587475,0.293255119
0.058651023,0.195503416,0.762463331,0.889540577,0.078201365,0.185728254,0.322580624,0.508308887,0.576735067,0.254154444,0.244379282,0.244379282,0.263929605,0.928641224,0.694037151,0.322580624
0.058651023,0.195503416,0.733137846,0.9090909,0.078201365,0.185728254,0.322580624,0.518084049,0.596285439,0.244379282,0.254154444,0.254154444,0.263929605,0.918866062,0.68426199,0.332355833
0.058651023,0.185728254,0.703812313,0.918866062,0.078201365,0.185728254,0.322580624,0.518084049,0.576735067,0.254154444,0.254154444,0.244379282,0.263929605,0.918866062,0.664711666,0.332355833
0.048875852,0.185728254,0.68426199,0.899315739,0.078201365,0.175953078,0.312805462,0.508308887,0.557184744,0.273704791,0.254154444,0.244379282,0.263929605,0.918866062,0.645161247,0.351906157
0.058651023,0.185728254,0.654936409,0.869990253,0.078201365,0.175953078,0.3030303,0.508308887,0.557184744,0.273704791,0.273704791,0.244379282,0.263929605,0.879765415,0.654936409,0.342130995
0.058651023,0.185728254,0.645161247,0.85043993,0.078201365,0.175953078,0.3030303,0.518084049,0.547409582,0.293255119,0.273704791,0.244379282,0.283479958,0.830889511,0.703812313,0.351906157
0.058651023,0.185728254,0.635386086,0.821114349,0.078201365,0.185728254,0.312805462,0.508308887,0.557184744,0.283479958,0.263929605,0.234604096,0.293255119,0.811339188,0.703812313,0.371456504
0.058651023,0.185728254,0.615835762,0.821114349,0.078201365,0.175953078,0.3030303,0.518084049,0.625610924,0.293255119,0.254154444,0.234604096,0.283479958,0.782013655,0.762463331,0.361681342
0.058651023,0.185728254,0.6060606,0.821114349,0.078201365,0.175953078,0.3030303,0.488758564,0.654936409,0.283479958,0.244379282,0.224828935,0.273704791,0.762463331,0.742913008,0.351906157
0.058651023,0.185728254,0.615835762,0.830889511,0.078201365,0.175953078,0.293255119,0.478983355,0.635386086,0.283479958,0.254154444,0.234604096,0.273704791,0.752688169,0.713587475,0.351906157
0.058651023,0.185728254,0.586510229,0.811339188,0.078201365,0.175953078,0.293255119,0.478983355,0.615835762,0.293255119,0.263929605,0.224828935,0.263929605,0.762463331,0.742913008,0.351906157
0.058651023,0.175953078,0.566959906,0.811339188,0.087976542,0.175953078,0.293255119,0.459433031,0.596285439,0.283479958,0.263929605,0.224828935,0.254154444,0.762463331,0.723362684,0.342130995
0.068426199,0.175953078,0.566959906,0.791788864,0.087976542,0.185728254,0.283479958,0.469208193,0.586510229,0.283479958,0.254154444,0.254154444,0.263929605,0.733137846,0.68426199,0.332355833
0.068426199,0.166177917,0.557184744,0.762463331,0.078201365,0.185728254,0.273704791,0.498533726,0.586510229,0.283479958,0.244379282,0.254154444,0.254154444,0.713587475,0.664711666,0.322580624
0.068426199,0.185728254,0.557184744,0.733137846,0.087976542,0.195503416,0.273704791,0.498533726,0.576735067,0.273704791,0.244379282,0.254154444,0.254154444,0.674486828,0.664711666,0.312805462
0.068426199,0.185728254,0.527859211,0.703812313,0.097751703,0.185728254,0.283479958,0.518084049,0.557184744,0.273704791,0.234604096,0.244379282,0.254154444,0.674486828,0.645161247,0.312805462
0.068426199,0.195503416,0.518084049,0.694037151,0.087976542,0.175953078,0.273704791,0.518084049,0.557184744,0.273704791,0.234604096,0.234604096,0.254154444,0.674486828,0.635386086,0.3030303
0.068426199,0.185728254,0.488758564,0.68426199,0.078201365,0.175953078,0.263929605,0.498533726,0.566959906,0.283479958,0.224828935,0.234604096,0.254154444,0.674486828,0.664711666,0.293255119
0.068426199,0.185728254,0.518084049,0.674486828,0.078201365,0.175953078,0.273704791,0.478983355,0.547409582,0.273704791,0.215053773,0.234604096,0.254154444,0.68426199,0.645161247,0.293255119
0.068426199,0.185728254,0.527859211,0.733137846,0.078201365,0.175953078,0.273704791,0.469208193,0.557184744,0.263929605,0.205278587,0.244379282,0.254154444,0.694037151,0.615835762,0.283479958
0.068426199,0.185728254,0.596285439,0.811339188,0.078201365,0.175953078,0.263929605,0.527859211,0.547409582,0.263929605,0.205278587,0.244379282,0.244379282,0.723362684,0.615835762,0.273704791
0.068426199,0.185728254,0.596285439,0.830889511,0.078201365,0.166177917,0.263929605,0.547409582,0.566959906,0.263929605,0.195503416,0.244379282,0.244379282,0.713587475,0.615835762,0.273704791
0.068426199,0.185728254,0.596285439,0.801564026,0.078201365,0.175953078,0.263929605,0.576735067,0.586510229,0.3030303,0.195503416,0.234604096,0.234604096,0.713587475,0.615835762,0.273704791
0.068426199,0.185728254,0.596285439,0.801564026,0.078201365,0.166177917,0.254154444,0.566959906,0.576735067,0.312805462,0.185728254,0.234604096,0.234604096,0.694037151,0.635386086,0.263929605
0.068426199,0.185728254,0.576735067,0.801564026,0.078201365,0.175953078,0.263929605,0.547409582,0.576735067,0.312805462,0.175953078,0.224828935,0.234604096,0.674486828,0.68426199,0.263929605
0.068426199,0.185728254,0.557184744,0.782013655,0.078201365,0.185728254,0.273704791,0.547409582,0.566959906,0.322580624,0.175953078,0.224828935,0.244379282,0.645161247,0.723362684,0.254154444
0.068426199,0.175953078,0.53763442,0.752688169,0.078201365,0.195503416,0.3030303,0.547409582,0.566959906,0.322580624,0.166177917,0.224828935,0.244379282,0.635386086,0.723362684,0.263929605
0.068426199,0.185728254,0.527859211,0.752688169,0.087976542,0.205278587,0.293255119,0.527859211,0.566959906,0.322580624,0.166177917,0.234604096,0.244379282,0.625610924,0.752688169,0.263929605
0.058651023,0.185728254,0.527859211,0.762463331,0.078201365,0.205278587,0.293255119,0.518084049,0.557184744,0.351906157,0.166177917,0.234604096,0.244379282,0.625610924,0.723362684,0.263929605
0.068426199,0.175953078,0.508308887,0.752688169,0.078201365,0.215053773,0.3030303,0.498533726,0.547409582,0.351906157,0.166177917,0.224828935,0.244379282,0.625610924,0.752688169,0.254154444
0.058651023,0.175953078,0.508308887,0.752688169,0.087976542,0.205278587,0.312805462,0.498533726,0.566959906,0.371456504,0.156402731,0.234604096,0.254154444,0.645161247,0.752688169,0.254154444
0.058651023,0.175953078,0.508308887,0.762463331,0.087976542,0.205278587,0.322580624,0.498533726,0.557184744,0.361681342,0.156402731,0.244379282,0.244379282,0.664711666,0.791788864,0.254154444
0.058651023,0.185728254,0.488758564,0.821114349,0.087976542,0.215053773,0.342130995,0.488758564,0.53763442,0.342130995,0.156402731,0.244379282,0.244379282,0.654936409,0.772238493,0.244379282
0.058651023,0.195503416,0.478983355,0.821114349,0.087976542,0.215053773,0.332355833,0.488758564,0.527859211,0.342130995,0.156402731,0.244379282,0.234604096,0.625610924,0.752688169,0.244379282
0.058651023,0.205278587,0.459433031,0.791788864,0.087976542,0.215053773,0.371456504,0.498533726,0.518084049,0.361681342,0.156402731,0.244379282,0.234604096,0.6060606,0.772238493,0.244379282
0.058651023,0.215053773,0.449657869,0.782013655,0.097751703,0.224828935,0.371456504,0.518084049,0.53763442,0.371456504,0.156402731,0.244379282,0.234604096,0.6060606,0.830889511,0.234604096
0.058651023,0.215053773,0.439882708,0.762463331,0.097751703,0.215053773,0.371456504,0.518084049,0.527859211,0.351906157,0.156402731,0.244379282,0.244379282,0.6060606,0.840664673,0.234604096
0.058651023,0.205278587,0.430107546,0.742913008,0.107526886,0.205278587,0.391006832,0.53763442,0.518084049,0.351906157,0.156402731,0.244379282,0.244379282,0.596285439,0.869990253,0.234604096
0.058651023,0.195503416,0.420332336,0.733137846,0.117302048,0.205278587,0.38123167,0.53763442,0.527859211,0.342130995,0.156402731,0.244379282,0.234604096,0.586510229,0.879765415,0.224828935
0.058651023,0.205278587,0.439882708,0.723362684,0.117302048,0.205278587,0.371456504,0.53763442,0.527859211,0.342130995,0.166177917,0.234604096,0.244379282,0.576735067,0.9090909,0.224828935
0.058651023,0.195503416,0.459433031,0.694037151,0.117302048,0.215053773,0.351906157,0.53763442,0.566959906,0.361681342,0.185728254,0.234604096,0.254154444,0.576735067,0.899315739,0.215053773
0.058651023,0.195503416,0.469208193,0.664711666,0.107526886,0.215053773,0.351906157,0.518084049,0.566959906,0.351906157,0.185728254,0.224828935,0.244379282,0.576735067,0.869990253,0.215053773
0.058651023,0.205278587,0.488758564,0.645161247,0.107526886,0.215053773,0.371456504,0.498533726,0.557184744,0.351906157,0.195503416,0.224828935,0.234604096,0.53763442,0.830889511,0.205278587
0.048875852,0.195503416,0.478983355,0.625610924,0.117302048,0.205278587,0.38123167,0.478983355,0.566959906,0.371456504,0.185728254,0.215053773,0.234604096,0.547409582,0.821114349,0.205278587
0.058651023,0.195503416,0.478983355,0.625610924,0.117302048,0.195503416,0.391006832,0.478983355,0.566959906,0.400782013,0.195503416,0.215053773,0.224828935,0.547409582,0.869990253,0.215053773
0.058651023,0.185728254,0.469208193,0.625610924,0.117302048,0.195503416,0.400782013,0.498533726,0.586510229,0.410557175,0.195503416,0.234604096,0.224828935,0.527859211,0.840664673,0.205278587
0.058651023,0.185728254,0.459433031,0.625610924,0.117302048,0.195503416,0.400782013,0.498533726,0.596285439,0.410557175,0.195503416,0.244379282,0.215053773,0.508308887,0.811339188,0.205278587
0.058651023,0.195503416,0.439882708,0.596285439,0.117302048,0.205278587,0.400782013,0.498533726,0.576735067,0.391006832,0.195503416,0.244379282,0.224828935,0.508308887,0.811339188,0.195503416
0.058651023,0.185728254,0.439882708,0.625610924,0.117302048,0.195503416,0.430107546,0.488758564,0.586510229,0.420332336,0.185728254,0.254154444,0.224828935,0.498533726,0.811339188,0.195503416
0.058651023,0.185728254,0.439882708,0.6060606,0.107526886,0.185728254,0.449657869,0.469208193,0.6060606,0.449657869,0.205278587,0.254154444,0.234604096,0.488758564,0.782013655,0.195503416
0.058651023,0.175953078,0.439882708,0.6060606,0.117302048,0.175953078,0.459433031,0.459433031,0.615835762,0.469208193,0.195503416,0.244379282,0.234604096,0.498533726,0.782013655,0.205278587
0.058651023,0.175953078,0.420332336,0.6060606,0.117302048,0.166177917,0.449657869,0.449657869,0.596285439,0.449657869,0.185728254,0.234604096,0.234604096,0.498533726,0.821114349,0.185728254
0.058651023,0.185728254,0.410557175,0.615835762,0.127077222,0.175953078,0.439882708,0.430107546,0.586510229,0.459433031,0.185728254,0.224828935,0.234604096,0.498533726,0.821114349,0.185728254
0.058651023,0.185728254,0.400782013,0.635386086,0.136852396,0.166177917,0.459433031,0.439882708,0.596285439,0.449657869,0.195503416,0.224828935,0.234604096,0.53763442,0.782013655,0.185728254
0.058651023,0.185728254,0.420332336,0.625610924,0.127077222,0.175953078,0.449657869,0.449657869,0.625610924,0.439882708,0.185728254,0.224828935,0.224828935,0.53763442,0.752688169,0.195503416
0.058651023,0.185728254,0.400782013,0.6060606,0.117302048,0.175953078,0.449657869,0.449657869,0.615835762,0.430107546,0.185728254,0.215053773,0.215053773,0.508308887,0.733137846,0.195503416
0.058651023,0.205278587,0.38123167,0.586510229,0.117302048,0.166177917,0.430107546,0.439882708,0.596285439,0.430107546,0.185728254,0.215053773,0.224828935,0.488758564,0.772238493,0.205278587
0.058651023,0.205278587,0.38123167,0.576735067,0.136852396,0.156402731,0.420332336,0.439882708,0.596285439,0.410557175,0.185728254,0.215053773,0.215053773,0.478983355,0.782013655,0.195503416
0.058651023,0.195503416,0.371456504,0.576735067,0.127077222,0.156402731,0.410557175,0.430107546,0.664711666,0.400782013,0.175953078,0.224828935,0.224828935,0.469208193,0.811339188,0.195503416
0.058651023,0.185728254,0.371456504,0.576735067,0.127077222,0.156402731,0.391006832,0.430107546,0.654936409,0.391006832,0.175953078,0.215053773,0.224828935,0.459433031,0.801564026,0.215053773
0.058651023,0.205278587,0.361681342,0.596285439,0.117302048,0.156402731,0.38123167,0.420332336,0.694037151,0.391006832,0.175953078,0.234604096,0.234604096,0.469208193,0.801564026,0.215053773
0.058651023,0.205278587,0.351906157,0.586510229,0.136852396,0.156402731,0.420332336,0.420332336,0.68426199,0.391006832,0.185728254,0.244379282,0.224828935,0.439882708,0.782013655,0.215053773
0.058651023,0.205278587,0.332355833,0.586510229,0.136852396,0.156402731,0.430107546,0.410557175,0.694037151,0.38123167,0.175953078,0.244379282,0.224828935,0.439882708,0.772238493,0.215053773
0.058651023,0.205278587,0.322580624,0.576735067,0.136852396,0.14662756,0.439882708,0.400782013,0.68426199,0.38123167,0.175953078,0.254154444,0.215053773,0.420332336,0.772238493,0.234604096
0.058651023,0.185728254,0.312805462,0.586510229,0.127077222,0.156402731,0.430107546,0.400782013,0.674486828,0.371456504,0.175953078,0.244379282,0.215053773,0.430107546,0.762463331,0.254154444
0.058651023,0.195503416,0.3030303,0.576735067,0.127077222,0.14662756,0.410557175,0.391006832,0.674486828,0.351906157,0.175953078,0.244379282,0.215053773,0.439882708,0.762463331,0.244379282
0.058651023,0.205278587,0.312805462,0.596285439,0.136852396,0.156402731,0.400782013,0.391006832,0.68426199,0.351906157,0.166177917,0.234604096,0.234604096,0.449657869,0.782013655,0.263929605
0.058651023,0.205278587,0.322580624,0.566959906,0.14662756,0.156402731,0.38123167,0.38123167,0.674486828,0.351906157,0.175953078,0.234604096,0.234604096,0.439882708,0.762463331,0.273704791
0.068426199,0.205278587,0.312805462,0.557184744,0.156402731,0.156402731,0.361681342,0.391006832,0.68426199,0.342130995,0.185728254,0.224828935,0.244379282,0.439882708,0.752688169,0.273704791
0.068426199,0.205278587,0.312805462,0.576735067,0.156402731,0.156402731,0.342130995,0.391006832,0.664711666,0.332355833,0.195503416,0.234604096,0.234604096,0.430107546,0.752688169,0.283479958
0.058651023,0.195503416,0.322580624,0.576735067,0.14662756,0.156402731,0.322580624,0.38123167,0.694037151,0.351906157,0.224828935,0.224828935,0.244379282,0.420332336,0.782013655,0.3030303
0.068426199,0.205278587,0.3030303,0.566959906,0.14662756,0.166177917,0.312805462,0.371456504,0.694037151,0.38123167,0.244379282,0.224828935,0.234604096,0.430107546,0.782013655,0.3030303
0.068426199,0.195503416,0.293255119,0.557184744,0.14662756,0.175953078,0.3030303,0.391006832,0.752688169,0.400782013,0.263929605,0.215053773,0.234604096,0.420332336,0.801564026,0.3030303
0.068426199,0.195503416,0.322580624,0.557184744,0.14662756,0.175953078,0.293255119,0.410557175,0.752688169,0.410557175,0.244379282,0.215053773,0.234604096,0.430107546,0.821114349,0.312805462
0.068426199,0.185728254,0.312805462,0.547409582,0.156402731,0.166177917,0.283479958,0.420332336,0.733137846,0.439882708,0.234604096,0.215053773,0.234604096,0.430107546,0.830889511,0.322580624
0.068426199,0.185728254,0.322580624,0.527859211,0.156402731,0.175953078,0.263929605,0.430107546,0.742913008,0.469208193,0.234604096,0.215053773,0.234604096,0.430107546,0.869990253,0.332355833
0.068426199,0.195503416,0.342130995,0.518084049,0.156402731,0.185728254,0.263929605,0.430107546,0.791788864,0.488758564,0.224828935,0.205278587,0.244379282,0.420332336,0.918866062,0.322580624
0.068426199,0.205278587,0.332355833,0.527859211,0.14662756,0.185728254,0.254154444,0.459433031,0.811339188,0.469208193,0.224828935,0.205278587,0.234604096,0.430107546,0.899315739,0.342130995
0.068426199,0.195503416,0.322580624,0.508308887,0.136852396,0.185728254,0.254154444,0.488758564,0.811339188,0.488758564,0.215053773,0.205278587,0.224828935,0.420332336,0.938416386,0.342130995
0.068426199,0.195503416,0.332355833,0.508308887,0.14662756,0.185728254,0.244379282,0.488758564,0.811339188,0.518084049,0.205278587,0.205278587,0.244379282,0.420332336,0.957966709,0.342130995
0.058651023,0.195503416,0.342130995,0.508308887,0.14662756,0.175953078,0.244379282,0.488758564,0.840664673,0.508308887,0.195503416,0.205278587,0.244379282,0.420332336,0.948191547,0.351906157
0.068426199,0.195503416,0.351906157,0.488758564,0.156402731,0.166177917,0.234604096,0.498533726,0.879765415,0.498533726,0.185728254,0.205278587,0.234604096,0.430107546,0.957966709,0.351906157
0.068426199,0.195503416,0.351906157,0.478983355,0.156402731,0.166177917,0.215053773,0.488758564,0.879765415,0.518084049,0.195503416,0.205278587,0.244379282,0.420332336,0.98729229,0.351906157
0.068426199,0.195503416,0.351906157,0.469208193,0.156402731,0.166177917,0.224828935,0.488758564,0.85043993,0.53763442,0.195503416,0.205278587,0.244379282,0.430107546,0.997067451,0.371456504
0.068426199,0.185728254,0.351906157,0.459433031,0.156402731,0.166177917,0.224828935,0.488758564,0.830889511,0.518084049,0.185728254,0.195503416,0.244379282,0.420332336,1.04594326,0.371456504
0.068426199,0.175953078,0.361681342,0.459433031,0.156402731,0.156402731,0.224828935,0.478983355,0.791788864,0.508308887,0.185728254,0.195503416,0.244379282,0.400782013,1.036168098,0.371456504
0.068426199,0.175953078,0.351906157,0.469208193,0.175953078,0.166177917,0.224828935,0.449657869,0.860215092,0.527859211,0.175953078,0.205278587,0.244379282,0.400782013,1.026392937,0.38123167
0.068426199,0.175953078,0.371456504,0.508308887,0.175953078,0.166177917,0.215053773,0.449657869,0.879765415,0.518084049,0.175953078,0.195503416,0.244379282,0.38123167,1.036168098,0.371456504
0.068426199,0.166177917,0.361681342,0.518084049,0.175953078,0.166177917,0.205278587,0.449657869,0.889540577,0.527859211,0.166177917,0.185728254,0.244379282,0.371456504,1.036168098,0.38123167
0.068426199,0.166177917,0.361681342,0.527859211,0.175953078,0.156402731,0.205278587,0.459433031,0.869990253,0.527859211,0.166177917,0.175953078,0.254154444,0.361681342,1.016617775,0.38123167
0.068426199,0.166177917,0.342130995,0.527859211,0.175953078,0.156402731,0.205278587,0.439882708,0.928641224,0.527859211,0.175953078,0.185728254,0.263929605,0.342130995,1.016617775,0.38123167
0.068426199,0.166177917,0.342130995,0.518084049,0.175953078,0.14662756,0.195503416,0.420332336,0.938416386,0.557184744,0.166177917,0.175953078,0.254154444,0.342130995,1.036168098,0.391006832
0.068426199,0.166177917,0.332355833,0.518084049,0.185728254,0.14662756,0.195503416,0.420332336,0.997067451,0.547409582,0.175953078,0.166177917,0.263929605,0.332355833,1.075268865,0.391006832
0.058651023,0.166177917,0.322580624,0.527859211,0.185728254,0.14662756,0.185728254,0.410557175,1.016617775,0.527859211,0.175953078,0.166177917,0.254154444,0.322580624,1.124144673,0.38123167
0.058651023,0.156402731,0.322580624,0.518084049,0.195503416,0.14662756,0.175953078,0.391006832,1.016617775,0.557184744,0.175953078,0.175953078,0.254154444,0.342130995,1.114369512,0.391006832
0.058651023,0.166177917,0.312805462,0.557184744,0.215053773,0.136852396,0.175953078,0.371456504,1.036168098,0.566959906,0.175953078,0.175953078,0.263929605,0.361681342,1.10459435,0.410557175
0.058651023,0.166177917,0.312805462,0.6060606,0.224828935,0.127077222,0.175953078,0.351906157,1.04594326,0.557184744,0.175953078,0.175953078,0.263929605,0.400782013,1.10459435,0.410557175
0.058651023,0.185728254,0.3030303,0.625610924,0.224828935,0.127077222,0.185728254,0.342130995,1.036168098,0.547409582,0.175953078,0.185728254,0.263929605,0.420332336,1.094819183,0.410557175
0.058651023,0.195503416,0.293255119,0.625610924,0.224828935,0.127077222,0.195503416,0.38123167,1.085044022,0.527859211,0.166177917,0.205278587,0.283479958,0.400782013,1.075268865,0.410557175
0.058651023,0.205278587,0.293255119,0.615835762,0.224828935,0.127077222,0.195503416,0.38123167,1.075268865,0.527859211,0.166177917,0.215053773,0.273704791,0.391006832,1.026392937,0.391006832
0.058651023,0.195503416,0.3030303,0.615835762,0.224828935,0.117302048,0.195503416,0.391006832,1.173020482,0.547409582,0.175953078,0.215053773,0.273704791,0.371456504,0.977517128,0.400782013
0.058651023,0.185728254,0.312805462,0.635386086,0.224828935,0.107526886,0.195503416,0.38123167,1.16324532,0.576735067,0.166177917,0.215053773,0.273704791,0.351906157,0.948191547,0.400782013
0.068426199,0.185728254,0.322580624,0.645161247,0.234604096,0.107526886,0.195503416,0.361681342,1.173020482,0.557184744,0.175953078,0.215053773,0.283479958,0.342130995,0.98729229,0.391006832
0.068426199,0.185728254,0.322580624,0.635386086,0.234604096,0.107526886,0.205278587,0.351906157,1.153470159,0.557184744,0.175953078,0.224828935,0.273704791,0.342130995,0.997067451,0.391006832
0.068426199,0.185728254,0.312805462,0.625610924,0.224828935,0.097751703,0.195503416,0.332355833,1.10459435,0.566959906,0.175953078,0.215053773,0.273704791,0.322580624,0.967741871,0.38123167
0.068426199,0.175953078,0.332355833,0.645161247,0.224828935,0.097751703,0.185728254,0.332355833,1.085044022,0.586510229,0.175953078,0.215053773,0.283479958,0.312805462,0.957966709,0.371456504
0.068426199,0.175953078,0.322580624,0.664711666,0.224828935,0.097751703,0.195503416,0.332355833,1.114369512,0.566959906,0.175953078,0.215053773,0.293255119,0.342130995,0.928641224,0.361681342
0.068426199,0.175953078,0.351906157,0.713587475,0.234604096,0.087976542,0.195503416,0.342130995,1.114369512,0.557184744,0.175953078,0.205278587,0.293255119,0.332355833,0.928641224,0.351906157
0.068426199,0.166177917,0.391006832,0.694037151,0.244379282,0.087976542,0.185728254,0.322580624,1.143694997,0.586510229,0.166177917,0.205278587,0.293255119,0.322580624,0.928641224,0.351906157
0.068426199,0.166177917,0.38123167,0.674486828,0.234604096,0.087976542,0.185728254,0.332355833,1.143694997,0.586510229,0.166177917,0.205278587,0.283479958,0.322580624,0.918866062,0.342130995
0.068426199,0.156402731,0.391006832,0.645161247,0.234604096,0.087976542,0.175953078,0.332355833,1.094819183,0.645161247,0.166177917,0.215053773,0.283479958,0.322580624,0.918866062,0.332355833
0.068426199,0.156402731,0.371456504,0.625610924,0.224828935,0.087976542,0.175953078,0.332355833,1.04594326,0.654936409,0.175953078,0.215053773,0.283479958,0.3030303,0.899315739,0.322580624
0.068426199,0.156402731,0.361681342,0.615835762,0.224828935,0.087976542,0.175953078,0.312805462,1.006842613,0.723362684,0.175953078,0.205278587,0.293255119,0.293255119,0.869990253,0.332355833
0.058651023,0.175953078,0.351906157,0.6060606,0.234604096,0.087976542,0.175953078,0.312805462,0.997067451,0.703812313,0.175953078,0.215053773,0.293255119,0.283479958,0.85043993,0.322580624
0.058651023,0.175953078,0.342130995,0.6060606,0.224828935,0.087976542,0.195503416,0.312805462,1.016617775,0.694037151,0.185728254,0.215053773,0.293255119,0.283479958,0.860215092,0.322580624
0.058651023,0.195503416,0.332355833,0.6060606,0.224828935,0.087976542,0.185728254,0.312805462,1.006842613,0.68426199,0.185728254,0.215053773,0.283479958,0.273704791,0.860215092,0.312805462
0.058651023,0.195503416,0.332355833,0.596285439,0.215053773,0.087976542,0.185728254,0.312805462,1.006842613,0.703812313,0.185728254,0.234604096,0.293255119,0.263929605,0.821114349,0.312805462
0.058651023,0.205278587,0.322580624,0.6060606,0.215053773,0.087976542,0.175953078,0.312805462,0.98729229,0.694037151,0.185728254,0.224828935,0.283479958,0.263929605,0.821114349,0.3030303
0.058651023,0.195503416,0.312805462,0.6060606,0.215053773,0.078201365,0.195503416,0.312805462,0.967741871,0.723362684,0.185728254,0.215053773,0.283479958,0.254154444,0.801564026,0.3030303
0.058651023,0.195503416,0.312805462,0.586510229,0.224828935,0.078201365,0.205278587,0.3030303,0.98729229,0.694037151,0.175953078,0.205278587,0.283479958,0.263929605,0.782013655,0.3030303
0.058651023,0.185728254,0.293255119,0.576735067,0.224828935,0.078201365,0.215053773,0.3030303,0.98729229,0.664711666,0.175953078,0.205278587,0.283479958,0.263929605,0.752688169,0.293255119
0.058651023,0.185728254,0.3030303,0.557184744,0.234604096,0.087976542,0.215053773,0.283479958,0.967741871,0.664711666,0.175953078,0.205278587,0.273704791,0.263929605,0.752688169,0.312805462
0.058651023,0.185728254,0.293255119,0.547409582,0.263929605,0.078201365,0.215053773,0.273704791,0.928641224,0.68426199,0.166177917,0.195503416,0.273704791,0.254154444,0.742913008,0.312805462
0.058651023,0.175953078,0.293255119,0.53763442,0.254154444,0.078201365,0.215053773,0.293255119,0.928641224,0.68426199,0.166177917,0.195503416,0.273704791,0.244379282,0.723362684,0.312805462
0.068426199,0.166177917,0.293255119,0.53763442,0.244379282,0.078201365,0.224828935,0.293255119,0.889540577,0.694037151,0.166177917,0.195503416,0.283479958,0.244379282,0.694037151,0.322580624
0.068426199,0.175953078,0.273704791,0.53763442,0.283479958,0.087976542,0.215053773,0.312805462,0.879765415,0.694037151,0.166177917,0.195503416,0.273704791,0.234604096,0.694037151,0.312805462
0.068426199,0.166177917,0.263929605,0.576735067,0.312805462,0.078201365,0.215053773,0.3030303,0.860215092,0.762463331,0.175953078,0.195503416,0.273704791,0.234604096,0.68426199,0.322580624
0.068426199,0.166177917,0.273704791,0.596285439,0.312805462,0.078201365,0.224828935,0.3030303,0.889540577,0.762463331,0.185728254,0.195503416,0.283479958,0.234604096,0.674486828,0.312805462
0.068426199,0.166177917,0.273704791,0.596285439,0.322580624,0.078201365,0.215053773,0.3030303,0.869990253,0.762463331,0.185728254,0.185728254,0.273704791,0.224828935,0.645161247,0.322580624
0.068426199,0.166177917,0.254154444,0.586510229,0.332355833,0.078201365,0.224828935,0.293255119,0.879765415,0.821114349,0.185728254,0.195503416,0.273704791,0.215053773,0.625610924,0.312805462
0.068426199,0.166177917,0.254154444,0.6060606,0.312805462,0.078201365,0.224828935,0.293255119,0.928641224,0.801564026,0.175953078,0.185728254,0.263929605,0.205278587,0.6060606,0.332355833
0.068426199,0.156402731,0.244379282,0.586510229,0.3030303,0.078201365,0.215053773,0.3030303,0.98729229,0.821114349,0.175953078,0.185728254,0.283479958,0.205278587,0.586510229,0.342130995
0.068426199,0.156402731,0.244379282,0.596285439,0.3030303,0.078201365,0.205278587,0.293255119,0.967741871,0.801564026,0.166177917,0.195503416,0.273704791,0.205278587,0.586510229,0.38123167
0.068426199,0.156402731,0.234604096,0.615835762,0.312805462,0.078201365,0.195503416,0.283479958,0.977517128,0.791788864,0.166177917,0.185728254,0.263929605,0.205278587,0.596285439,0.38123167
0.058651023,0.156402731,0.234604096,0.635386086,0.322580624,0.068426199,0.195503416,0.273704791,0.98729229,0.801564026,0.156402731,0.185728254,0.263929605,0.195503416,0.586510229,0.391006832
0.058651023,0.166177917,0.234604096,0.645161247,0.312805462,0.078201365,0.195503416,0.263929605,1.026392937,0.811339188,0.156402731,0.185728254,0.263929605,0.205278587,0.576735067,0.391006832
0.058651023,0.156402731,0.224828935,0.635386086,0.312805462,0.068426199,0.195503416,0.254154444,1.016617775,0.811339188,0.156402731,0.175953078,0.263929605,0.215053773,0.586510229,0.420332336
0.058651023,0.156402731,0.224828935,0.615835762,0.3030303,0.078201365,0.195503416,0.244379282,1.006842613,0.821114349,0.14662756,0.175953078,0.263929605,0.224828935,0.576735067,0.439882708
0.058651023,0.156402731,0.224828935,0.625610924,0.3030303,0.078201365,0.195503416,0.234604096,1.016617775,0.830889511,0.14662756,0.175953078,0.263929605,0.215053773,0.6060606,0.420332336
0.058651023,0.156402731,0.234604096,0.635386086,0.361681342,0.068426199,0.205278587,0.224828935,0.997067451,0.840664673,0.156402731,0.175953078,0.263929605,0.215053773,0.625610924,0.439882708
0.068426199,0.14662756,0.244379282,0.625610924,0.38123167,0.068426199,0.205278587,0.234604096,0.98729229,0.821114349,0.156402731,0.175953078,0.254154444,0.215053773,0.645161247,0.439882708
0.058651023,0.14662756,0.244379282,0.625610924,0.391006832,0.068426199,0.195503416,0.234604096,0.977517128,0.791788864,0.156402731,0.166177917,0.244379282,0.215053773,0.674486828,0.488758564
0.058651023,0.14662756,0.244379282,0.635386086,0.391006832,0.068426199,0.195503416,0.234604096,0.957966709,0.772238493,0.156402731,0.175953078,0.244379282,0.205278587,0.664711666,0.518084049
0.058651023,0.136852396,0.244379282,0.615835762,0.38123167,0.068426199,0.195503416,0.254154444,0.928641224,0.752688169,0.156402731,0.175953078,0.263929605,0.195503416,0.645161247,0.527859211
0.058651023,0.136852396,0.244379282,0.586510229,0.400782013,0.078201365,0.195503416,0.254154444,0.918866062,0.762463331,0.14662756,0.185728254,0.263929605,0.195503416,0.625610924,0.518084049
0.058651023,0.136852396,0.234604096,0.576735067,0.410557175,0.078201365,0.185728254,0.254154444,0.889540577,0.772238493,0.14662756,0.185728254,0.254154444,0.215053773,0.625610924,0.527859211
0.058651023,0.127077222,0.224828935,0.557184744,0.439882708,0.068426199,0.185728254,0.254154444,0.9090909,0.85043993,0.14662756,0.185728254,0.254154444,0.205278587,0.635386086,0.53763442
0.058651023,0.136852396,0.234604096,0.547409582,0.469208193,0.068426199,0.185728254,0.254154444,0.918866062,0.85043993,0.14662756,0.185728254,0.254154444,0.205278587,0.615835762,0.557184744
0.058651023,0.136852396,0.234604096,0.527859211,0.459433031,0.068426199,0.185728254,0.254154444,0.9090909,0.801564026,0.156402731,0.185728254,0.254154444,0.215053773,0.6060606,0.596285439
0.058651023,0.136852396,0.234604096,0.508308887,0.449657869,0.068426199,0.195503416,0.244379282,0.938416386,0.782013655,0.156402731,0.185728254,0.254154444,0.215053773,0.6060606,0.6060606
0.058651023,0.14662756,0.224828935,0.488758564,0.439882708,0.068426199,0.185728254,0.244379282,0.938416386,0.782013655,0.156402731,0.185728254,0.244379282,0.215053773,0.576735067,0.596285439
0.058651023,0.156402731,0.224828935,0.478983355,0.439882708,0.068426199,0.185728254,0.244379282,0.967741871,0.840664673,0.156402731,0.185728254,0.234604096,0.224828935,0.557184744,0.586510229
0.058651023,0.14662756,0.224828935,0.508308887,0.439882708,0.058651023,0.175953078,0.254154444,1.016617775,0.840664673,0.156402731,0.175953078,0.244379282,0.224828935,0.547409582,0.586510229
0.058651023,0.14662756,0.224828935,0.518084049,0.430107546,0.058651023,0.175953078,0.254154444,1.085044022,0.840664673,0.166177917,0.175953078,0.234604096,0.244379282,0.576735067,0.6060606
0.058651023,0.166177917,0.215053773,0.518084049,0.439882708,0.058651023,0.175953078,0.263929605,1.16324532,0.899315739,0.166177917,0.175953078,0.234604096,0.234604096,0.557184744,0.645161247
0.058651023,0.166177917,0.215053773,0.508308887,0.459433031,0.058651023,0.175953078,0.254154444,1.241446733,0.98729229,0.156402731,0.185728254,0.234604096,0.234604096,0.547409582,0.615835762
0.068426199,0.175953078,0.205278587,0.508308887,0.459433031,0.058651023,0.185728254,0.234604096,1.290322542,0.98729229,0.166177917,0.205278587,0.234604096,0.224828935,0.527859211,0.635386086
0.068426199,0.166177917,0.195503416,0.498533726,0.439882708,0.058651023,0.185728254,0.244379282,1.33919847,1.006842613,0.166177917,0.215053773,0.234604096,0.224828935,0.518084049,0.635386086
0.068426199,0.166177917,0.195503416,0.478983355,0.449657869,0.058651023,0.195503416,0.254154444,1.368523955,0.967741871,0.166177917,0.205278587,0.234604096,0.215053773,0.498533726,0.635386086
0.068426199,0.156402731,0.195503416,0.459433031,0.478983355,0.058651023,0.195503416,0.244379282,1.358748794,0.948191547,0.156402731,0.205278587,0.254154444,0.215053773,0.478983355,0.625610924
0.068426199,0.156402731,0.195503416,0.449657869,0.488758564,0.058651023,0.205278587,0.273704791,1.388074284,0.977517128,0.175953078,0.205278587,0.263929605,0.205278587,0.459433031,0.635386086
0.078201365,0.14662756,0.195503416,0.459433031,0.488758564,0.058651023,0.205278587,0.263929605,1.378299117,0.977517128,0.175953078,0.224828935,0.254154444,0.205278587,0.449657869,0.615835762
0.068426199,0.14662756,0.185728254,0.498533726,0.478983355,0.058651023,0.205278587,0.263929605,1.358748794,0.957966709,0.175953078,0.224828935,0.273704791,0.224828935,0.449657869,0.635386086
0.078201365,0.14662756,0.185728254,0.498533726,0.488758564,0.058651023,0.195503416,0.263929605,1.329423308,0.938416386,0.195503416,0.234604096,0.312805462,0.224828935,0.439882708,0.6060606
0.078201365,0.14662756,0.175953078,0.498533726,0.488758564,0.058651023,0.195503416,0.254154444,1.300097704,0.899315739,0.195503416,0.244379282,0.322580624,0.234604096,0.430107546,0.615835762
0.078201365,0.156402731,0.175953078,0.527859211,0.488758564,0.058651023,0.195503416,0.263929605,1.260997057,0.9090909,0.215053773,0.234604096,0.342130995,0.234604096,0.420332336,0.625610924
0.078201365,0.14662756,0.185728254,0.527859211,0.498533726,0.068426199,0.185728254,0.263929605,1.22189641,0.948191547,0.234604096,0.234604096,0.351906157,0.224828935,0.410557175,0.645161247
0.068426199,0.14662756,0.185728254,0.518084049,0.547409582,0.058651023,0.185728254,0.254154444,1.16324532,0.918866062,0.244379282,0.234604096,0.38123167,0.234604096,0.391006832,0.674486828
0.068426199,0.136852396,0.205278587,0.518084049,0.566959906,0.068426199,0.185728254,0.254154444,1.124144673,0.928641224,0.234604096,0.244379282,0.400782013,0.224828935,0.38123167,0.723362684
0.068426199,0.136852396,0.205278587,0.508308887,0.6060606,0.068426199,0.185728254,0.263929605,1.075268865,0.928641224,0.234604096,0.244379282,0.430107546,0.234604096,0.391006832,0.782013655
0.068426199,0.136852396,0.195503416,0.498533726,0.6060606,0.058651023,0.175953078,0.254154444,1.036168098,0.9090909,0.234604096,0.244379282,0.459433031,0.234604096,0.391006832,0.879765415
0.068426199,0.136852396,0.195503416,0.518084049,0.586510229,0.068426199,0.175953078,0.244379282,0.977517128,0.869990253,0.234604096,0.234604096,0.488758564,0.224828935,0.371456504,0.948191547
0.078201365,0.127077222,0.205278587,0.527859211,0.576735067,0.058651023,0.166177917,0.244379282,0.967741871,0.85043993,0.234604096,0.244379282,0.527859211,0.254154444,0.371456504,1.075268865
0.068426199,0.127077222,0.195503416,0.53763442,0.6060606,0.068426199,0.185728254,0.244379282,0.957966709,0.869990253,0.224828935,0.234604096,0.557184744,0.273704791,0.391006832,1.133919835
0.068426199,0.117302048,0.195503416,0.547409582,0.615835762,0.068426199,0.205278587,0.234604096,0.928641224,0.889540577,0.224828935,0.244379282,0.625610924,0.293255119,0.410557175,1.231671572
0.068426199,0.117302048,0.185728254,0.53763442,0.645161247,0.068426199,0.205278587,0.224828935,0.9090909,0.977517128,0.224828935,0.234604096,0.654936409,0.312805462,0.410557175,1.300097704
0.068426199,0.117302048,0.185728254,0.527859211,0.654936409,0.068426199,0.215053773,0.234604096,0.9090909,1.026392937,0.215053773,0.234604096,0.645161247,0.312805462,0.430107546,1.358748794
0.068426199,0.117302048,0.185728254,0.53763442,0.645161247,0.068426199,0.215053773,0.254154444,0.9090909,0.98729229,0.215053773,0.234604096,0.635386086,0.312805462,0.410557175,1.407624626
0.078201365,0.107526886,0.195503416,0.547409582,0.635386086,0.068426199,0.215053773,0.244379282,0.918866062,0.967741871,0.224828935,0.234604096,0.635386086,0.322580624,0.410557175,1.524926662
0.078201365,0.117302048,0.195503416,0.518084049,0.635386086,0.068426199,0.215053773,0.234604096,0.9090909,0.948191547,0.215053773,0.224828935,0.664711666,0.312805462,0.420332336,1.612903214
0.078201365,0.117302048,0.185728254,0.53763442,0.654936409,0.068426199,0.205278587,0.224828935,0.9090909,0.938416386,0.215053773,0.224828935,0.674486828,0.312805462,0.420332336,1.612903214
0.078201365,0.117302048,0.195503416,0.527859211,0.68426199,0.078201365,0.195503416,0.224828935,0.899315739,0.9090909,0.215053773,0.234604096,0.68426199,0.322580624,0.410557175,1.65200386
0.078201365,0.107526886,0.215053773,0.518084049,0.694037151,0.078201365,0.205278587,0.224828935,0.899315739,0.879765415,0.215053773,0.244379282,0.664711666,0.322580624,0.430107546,1.730205297
0.068426199,0.107526886,0.215053773,0.527859211,0.752688169,0.078201365,0.205278587,0.224828935,0.889540577,0.85043993,0.215053773,0.244379282,0.645161247,0.322580624,0.439882708,1.739980459
0.068426199,0.117302048,0.205278587,0.518084049,0.811339188,0.078201365,0.205278587,0.205278587,0.85043993,0.860215092,0.224828935,0.244379282,0.625610924,0.332355833,0.459433031,1.681329346
0.068426199,0.117302048,0.205278587,0.508308887,0.85043993,0.068426199,0.195503416,0.205278587,0.801564026,0.840664673,0.244379282,0.244379282,0.6060606,0.332355833,0.478983355,1.671554184
0.068426199,0.117302048,0.195503416,0.527859211,0.869990253,0.068426199,0.195503416,0.205278587,0.762463331,0.85043993,0.244379282,0.254154444,0.586510229,0.332355833,0.508308887,1.661779022
0.058651023,0.107526886,0.195503416,0.518084049,0.860215092,0.068426199,0.205278587,0.205278587,0.723362684,0.869990253,0.254154444,0.244379282,0.557184744,0.312805462,0.53763442,1.632453537
0.058651023,0.107526886,0.195503416,0.53763442,0.879765415,0.068426199,0.205278587,0.205278587,0.68426199,0.85043993,0.254154444,0.254154444,0.557184744,0.3030303,0.566959906,1.632453537
0.058651023,0.107526886,0.195503416,0.527859211,0.899315739,0.068426199,0.205278587,0.195503416,0.664711666,0.840664673,0.254154444,0.244379282,0.547409582,0.322580624,0.576735067,1.564027309
0.058651023,0.107526886,0.195503416,0.508308887,0.889540577,0.068426199,0.195503416,0.195503416,0.654936409,0.811339188,0.244379282,0.254154444,0.557184744,0.312805462,0.596285439,1.534701824
0.058651023,0.117302048,0.195503416,0.488758564,0.899315739,0.078201365,0.215053773,0.185728254,0.625610924,0.791788864,0.263929605,0.244379282,0.566959906,0.312805462,0.6060606,1.485826015
0.058651023,0.127077222,0.205278587,0.488758564,0.879765415,0.068426199,0.215053773,0.175953078,0.596285439,0.772238493,0.293255119,0.254154444,0.576735067,0.332355833,0.635386086,1.515151501
0.048875852,0.127077222,0.205278587,0.488758564,0.869990253,0.068426199,0.215053773,0.166177917,0.586510229,0.752688169,0.293255119,0.254154444,0.6060606,0.322580624,0.664711666,1.495601177
0.048875852,0.127077222,0.215053773,0.469208193,0.85043993,0.068426199,0.205278587,0.166177917,0.566959906,0.742913008,0.293255119,0.254154444,0.615835762,0.3030303,0.674486828,1.466275692
0.048875852,0.127077222,0.205278587,0.459433031,0.811339188,0.078201365,0.215053773,0.156402731,0.547409582,0.733137846,0.293255119,0.244379282,0.654936409,0.3030303,0.713587475,1.407624626
0.048875852,0.127077222,0.205278587,0.459433031,0.782013655,0.078201365,0.205278587,0.166177917,0.53763442,0.742913008,0.283479958,0.234604096,0.674486828,0.293255119,0.733137846,1.348973632
0.048875852,0.127077222,0.195503416,0.439882708,0.782013655,0.078201365,0.205278587,0.156402731,0.508308887,0.752688169,0.283479958,0.224828935,0.664711666,0.293255119,0.772238493,1.319648147
0.048875852,0.127077222,0.195503416,0.459433031,0.801564026,0.078201365,0.205278587,0.166177917,0.488758564,0.791788864,0.3030303,0.215053773,0.664711666,0.283479958,0.782013655,1.28054738
0.048875852,0.127077222,0.215053773,0.508308887,0.811339188,0.078201365,0.195503416,0.205278587,0.488758564,0.85043993,0.322580624,0.215053773,0.654936409,0.283479958,0.821114349,1.260997057
0.058651023,0.136852396,0.224828935,0.527859211,0.811339188,0.078201365,0.195503416,0.215053773,0.459433031,0.869990253,0.322580624,0.205278587,0.664711666,0.293255119,0.85043993,1.231671572
0.058651023,0.14662756,0.234604096,0.527859211,0.801564026,0.078201365,0.205278587,0.234604096,0.449657869,0.879765415,0.312805462,0.215053773,0.654936409,0.293255119,0.889540577,1.212121248
0.058651023,0.156402731,0.224828935,0.518084049,0.801564026,0.087976542,0.195503416,0.244379282,0.439882708,0.889540577,0.322580624,0.215053773,0.625610924,0.293255119,0.928641224,1.16324532
0.058651023,0.156402731,0.224828935,0.508308887,0.782013655,0.087976542,0.185728254,0.263929605,0.420332336,0.85043993,0.322580624,0.205278587,0.615835762,0.273704791,0.967741871,1.173020482
0.058651023,0.166177917,0.215053773,0.488758564,0.772238493,0.087976542,0.195503416,0.263929605,0.410557175,0.85043993,0.322580624,0.195503416,0.596285439,0.283479958,0.977517128,1.153470159
0.068426199,0.175953078,0.205278587,0.498533726,0.733137846,0.078201365,0.185728254,0.254154444,0.410557175,0.85043993,0.332355833,0.195503416,0.566959906,0.312805462,0.98729229,1.10459435
0.058651023,0.185728254,0.205278587,0.478983355,0.713587475,0.097751703,0.185728254,0.234604096,0.391006832,0.889540577,0.361681342,0.185728254,0.547409582,0.3030303,1.006842613,1.094819183
0.058651023,0.185728254,0.205278587,0.469208193,0.694037151,0.107526886,0.175953078,0.244379282,0.371456504,0.869990253,0.371456504,0.185728254,0.527859211,0.3030303,1.026392937,1.075268865
0.058651023,0.185728254,0.195503416,0.449657869,0.674486828,0.107526886,0.175953078,0.254154444,0.361681342,0.889540577,0.38123167,0.175953078,0.518084049,0.283479958,1.016617775,1.065493703
0.058651023,0.185728254,0.195503416,0.439882708,0.68426199,0.117302048,0.185728254,0.254154444,0.351906157,0.869990253,0.391006832,0.166177917,0.498533726,0.283479958,1.016617775,1.133919835
0.058651023,0.185728254,0.185728254,0.420332336,0.674486828,0.107526886,0.185728254,0.254154444,0.351906157,0.860215092,0.400782013,0.166177917,0.478983355,0.273704791,1.026392937,1.094819183
0.058651023,0.185728254,0.185728254,0.400782013,0.664711666,0.107526886,0.195503416,0.263929605,0.342130995,0.957966709,0.391006832,0.156402731,0.469208193,0.273704791,0.997067451,1.075268865
0.058651023,0.185728254,0.175953078,0.400782013,0.645161247,0.107526886,0.195503416,0.254154444,0.322580624,0.928641224,0.410557175,0.156402731,0.449657869,0.263929605,0.98729229,1.085044022
0.058651023,0.175953078,0.175953078,0.400782013,0.635386086,0.117302048,0.195503416,0.244379282,0.312805462,0.9090909,0.430107546,0.156402731,0.430107546,0.254154444,0.977517128,1.036168098
0.058651023,0.166177917,0.175953078,0.391006832,0.625610924,0.127077222,0.185728254,0.244379282,0.3030303,0.928641224,0.498533726,0.156402731,0.410557175,0.263929605,0.948191547,1.036168098
0.058651023,0.156402731,0.166177917,0.38123167,0.625610924,0.127077222,0.175953078,0.244379282,0.283479958,0.918866062,0.488758564,0.156402731,0.400782013,0.244379282,0.938416386,1.036168098
0.058651023,0.156402731,0.156402731,0.38123167,0.6060606,0.127077222,0.166177917,0.234604096,0.293255119,0.957966709,0.498533726,0.14662756,0.391006832,0.244379282,0.9090909,0.997067451
0.058651023,0.166177917,0.156402731,0.371456504,0.625610924,0.156402731,0.166177917,0.234604096,0.283479958,0.997067451,0.547409582,0.14662756,0.38123167,0.244379282,0.869990253,0.977517128
0.058651023,0.166177917,0.156402731,0.351906157,0.654936409,0.166177917,0.166177917,0.234604096,0.283479958,0.997067451,0.557184744,0.14662756,0.371456504,0.254154444,0.830889511,0.977517128
0.058651023,0.156402731,0.156402731,0.342130995,0.703812313,0.166177917,0.156402731,0.224828935,0.283479958,1.016617775,0.547409582,0.136852396,0.38123167,0.254154444,0.801564026,0.997067451
0.048875852,0.156402731,0.156402731,0.332355833,0.723362684,0.175953078,0.156402731,0.215053773,0.283479958,1.026392937,0.53763442,0.136852396,0.391006832,0.254154444,0.772238493,0.98729229
0.058651023,0.14662756,0.156402731,0.322580624,0.723362684,0.175953078,0.14662756,0.215053773,0.273704791,0.997067451,0.53763442,0.156402731,0.400782013,0.244379282,0.742913008,0.957966709
0.058651023,0.14662756,0.156402731,0.322580624,0.703812313,0.175953078,0.14662756,0.224828935,0.273704791,0.967741871,0.518084049,0.175953078,0.400782013,0.244379282,0.703812313,0.977517128
0.058651023,0.14662756,0.156402731,0.342130995,0.742913008,0.175953078,0.14662756,0.224828935,0.273704791,0.938416386,0.527859211,0.175953078,0.38123167,0.244379282,0.68426199,0.967741871
0.058651023,0.136852396,0.166177917,0.332355833,0.782013655,0.185728254,0.14662756,0.234604096,0.283479958,0.9090909,0.508308887,0.175953078,0.391006832,0.273704791,0.664711666,0.957966709
0.058651023,0.136852396,0.156402731,0.322580624,0.811339188,0.175953078,0.136852396,0.244379282,0.283479958,0.879765415,0.518084049,0.175953078,0.38123167,0.283479958,0.645161247,0.928641224
0.058651023,0.136852396,0.156402731,0.312805462,0.85043993,0.175953078,0.136852396,0.244379282,0.283479958,0.869990253,0.508308887,0.175953078,0.371456504,0.273704791,0.625610924,0.918866062
0.058651023,0.136852396,0.156402731,0.312805462,0.840664673,0.166177917,0.136852396,0.244379282,0.283479958,0.840664673,0.518084049,0.166177917,0.371456504,0.283479958,0.6060606,0.889540577
0.058651023,0.136852396,0.166177917,0.3030303,0.830889511,0.156402731,0.14662756,0.234604096,0.3030303,0.830889511,0.498533726,0.166177917,0.371456504,0.3030303,0.6060606,0.889540577
0.058651023,0.136852396,0.156402731,0.3030303,0.830889511,0.175953078,0.14662756,0.234604096,0.3030303,0.811339188,0.488758564,0.175953078,0.361681342,0.322580624,0.576735067,0.889540577
0.058651023,0.127077222,0.156402731,0.293255119,0.811339188,0.175953078,0.136852396,0.234604096,0.3030303,0.811339188,0.498533726,0.175953078,0.351906157,0.322580624,0.557184744,0.889540577
0.058651023,0.127077222,0.156402731,0.283479958,0.791788864,0.175953078,0.136852396,0.224828935,0.293255119,0.782013655,0.53763442,0.175953078,0.351906157,0.332355833,0.576735067,0.918866062
0.058651023,0.127077222,0.156402731,0.273704791,0.791788864,0.175953078,0.136852396,0.215053773,0.3030303,0.772238493,0.527859211,0.175953078,0.351906157,0.322580624,0.625610924,0.889540577
0.058651023,0.117302048,0.156402731,0.273704791,0.791788864,0.166177917,0.136852396,0.215053773,0.3030303,0.742913008,0.527859211,0.185728254,0.342130995,0.312805462,0.703812313,0.869990253
0.058651023,0.117302048,0.166177917,0.263929605,0.821114349,0.166177917,0.136852396,0.224828935,0.3030303,0.713587475,0.527859211,0.195503416,0.322580624,0.322580624,0.772238493,0.899315739
0.058651023,0.117302048,0.166177917,0.263929605,0.840664673,0.166177917,0.136852396,0.234604096,0.3030303,0.674486828,0.508308887,0.185728254,0.312805462,0.332355833,0.85043993,0.9090909
0.058651023,0.117302048,0.166177917,0.254154444,0.869990253,0.166177917,0.127077222,0.234604096,0.3030303,0.654936409,0.508308887,0.175953078,0.312805462,0.332355833,0.9090909,0.918866062
0.058651023,0.107526886,0.156402731,0.254154444,0.840664673,0.175953078,0.127077222,0.234604096,0.3030303,0.645161247,0.508308887,0.175953078,0.3030303,0.312805462,0.977517128,0.889540577
0.058651023,0.107526886,0.156402731,0.254154444,0.85043993,0.175953078,0.136852396,0.254154444,0.322580624,0.635386086,0.527859211,0.175953078,0.293255119,0.312805462,1.036168098,0.879765415
0.058651023,0.097751703,0.166177917,0.254154444,0.899315739,0.195503416,0.136852396,0.263929605,0.322580624,0.635386086,0.508308887,0.175953078,0.283479958,0.312805462,1.114369512,0.85043993
0.058651023,0.097751703,0.166177917,0.244379282,0.918866062,0.195503416,0.136852396,0.273704791,0.312805462,0.6060606,0.53763442,0.175953078,0.273704791,0.293255119,1.16324532,0.830889511
0.058651023,0.097751703,0.166177917,0.234604096,0.928641224,0.195503416,0.136852396,0.283479958,0.312805462,0.586510229,0.527859211,0.166177917,0.283479958,0.283479958,1.22189641,0.801564026
0.068426199,0.087976542,0.156402731,0.244379282,0.899315739,0.195503416,0.127077222,0.273704791,0.3030303,0.576735067,0.557184744,0.166177917,0.293255119,0.283479958,1.260997057,0.791788864
0.058651023,0.087976542,0.156402731,0.244379282,0.879765415,0.185728254,0.136852396,0.254154444,0.3030303,0.547409582,0.596285439,0.166177917,0.283479958,0.273704791,1.300097704,0.801564026
0.068426199,0.087976542,0.156402731,0.244379282,0.879765415,0.195503416,0.136852396,0.244379282,0.3030303,0.566959906,0.596285439,0.175953078,0.283479958,0.273704791,1.329423308,0.782013655
0.058651023,0.078201365,0.166177917,0.254154444,0.918866062,0.185728254,0.136852396,0.244379282,0.293255119,0.566959906,0.6060606,0.175953078,0.273704791,0.273704791,1.378299117,0.782013655
0.058651023,0.078201365,0.156402731,0.244379282,0.967741871,0.185728254,0.136852396,0.234604096,0.283479958,0.547409582,0.615835762,0.195503416,0.283479958,0.273704791,1.397849445,0.772238493
0.058651023,0.078201365,0.156402731,0.244379282,0.957966709,0.185728254,0.127077222,0.215053773,0.273704791,0.576735067,0.6060606,0.185728254,0.283479958,0.254154444,1.42717495,0.811339188
0.058651023,0.078201365,0.156402731,0.244379282,0.918866062,0.175953078,0.127077222,0.215053773,0.273704791,0.625610924,0.615835762,0.195503416,0.283479958,0.263929605,1.45650053,0.801564026
0.058651023,0.078201365,0.156402731,0.254154444,0.938416386,0.175953078,0.127077222,0.215053773,0.263929605,0.654936409,0.645161247,0.195503416,0.273704791,0.283479958,1.476050854,0.830889511
0.058651023,0.078201365,0.156402731,0.254154444,0.928641224,0.166177917,0.127077222,0.215053773,0.263929605,0.694037151,0.625610924,0.185728254,0.283479958,0.283479958,1.476050854,0.830889511
0.058651023,0.078201365,0.166177917,0.263929605,0.9090909,0.166177917,0.127077222,0.224828935,0.254154444,0.68426199,0.694037151,0.195503416,0.283479958,0.273704791,1.476050854,0.791788864
0.058651023,0.078201365,0.166177917,0.254154444,0.869990253,0.166177917,0.117302048,0.254154444,0.254154444,0.68426199,0.694037151,0.195503416,0.283479958,0.273704791,1.485826015,0.782013655
0.058651023,0.078201365,0.156402731,0.273704791,0.899315739,0.156402731,0.117302048,0.234604096,0.244379282,0.654936409,0.733137846,0.195503416,0.263929605,0.263929605,1.476050854,0.85043993
0.068426199,0.078201365,0.14662756,0.254154444,0.918866062,0.156402731,0.117302048,0.234604096,0.234604096,0.635386086,0.752688169,0.195503416,0.273704791,0.263929605,1.446725368,0.85043993
0.058651023,0.078201365,0.156402731,0.254154444,0.967741871,0.156402731,0.117302048,0.234604096,0.244379282,0.625610924,0.723362684,0.195503416,0.273704791,0.254154444,1.417399788,0.830889511
0.068426199,0.078201365,0.156402731,0.254154444,0.918866062,0.156402731,0.117302048,0.244379282,0.244379282,0.596285439,0.762463331,0.215053773,0.263929605,0.273704791,1.407624626,0.811339188
0.068426199,0.068426199,0.166177917,0.254154444,0.9090909,0.166177917,0.117302048,0.224828935,0.263929605,0.566959906,0.772238493,0.215053773,0.254154444,0.283479958,1.417399788,0.801564026
0.068426199,0.078201365,0.175953078,0.254154444,0.938416386,0.185728254,0.127077222,0.234604096,0.263929605,0.547409582,0.752688169,0.215053773,0.254154444,0.283479958,1.417399788,0.889540577
0.068426199,0.078201365,0.175953078,0.254154444,0.938416386,0.205278587,0.136852396,0.244379282,0.263929605,0.527859211,0.742913008,0.224828935,0.263929605,0.283479958,1.407624626,0.957966709
0.068426199,0.078201365,0.175953078,0.254154444,0.967741871,0.215053773,0.127077222,0.244379282,0.263929605,0.508308887,0.742913008,0.224828935,0.263929605,0.273704791,1.397849445,1.055718422
0.058651023,0.078201365,0.185728254,0.254154444,0.948191547,0.224828935,0.127077222,0.263929605,0.254154444,0.498533726,0.713587475,0.215053773,0.273704791,0.273704791,1.378299117,1.075268865
0.058651023,0.078201365,0.195503416,0.254154444,0.967741871,0.234604096,0.127077222,0.263929605,0.254154444,0.478983355,0.772238493,0.215053773,0.263929605,0.263929605,1.368523955,1.10459435
0.058651023,0.078201365,0.195503416,0.244379282,0.967741871,0.224828935,0.127077222,0.273704791,0.254154444,0.488758564,0.772238493,0.224828935,0.263929605,0.273704791,1.368523955,1.085044022
0.058651023,0.078201365,0.195503416,0.234604096,0.977517128,0.224828935,0.117302048,0.273704791,0.244379282,0.508308887,0.782013655,0.224828935,0.263929605,0.283479958,1.368523955,1.133919835
0.058651023,0.078201365,0.195503416,0.224828935,0.997067451,0.224828935,0.127077222,0.273704791,0.244379282,0.498533726,0.772238493,0.224828935,0.273704791,0.283479958,1.33919847,1.153470159
0.058651023,0.078201365,0.195503416,0.224828935,1.04594326,0.234604096,0.117302048,0.263929605,0.244379282,0.478983355,0.782013655,0.215053773,0.273704791,0.3030303,1.33919847,1.124144673
0.058651023,0.087976542,0.205278587,0.244379282,1.143694997,0.234604096,0.117302048,0.263929605,0.234604096,0.469208193,0.772238493,0.215053773,0.273704791,0.312805462,1.33919847,1.10459435
0.058651023,0.087976542,0.205278587,0.254154444,1.192570925,0.234604096,0.107526886,0.254154444,0.244379282,0.469208193,0.762463331,0.215053773,0.263929605,0.322580624,1.33919847,1.055718422
0.058651023,0.087976542,0.205278587,0.3030303,1.153470159,0.234604096,0.107526886,0.273704791,0.234604096,0.449657869,0.830889511,0.215053773,0.273704791,0.312805462,1.33919847,1.10459435
0.068426199,0.097751703,0.195503416,0.3030303,1.124144673,0.244379282,0.097751703,0.283479958,0.234604096,0.449657869,0.85043993,0.195503416,0.283479958,0.3030303,1.319648147,1.114369512
0.058651023,0.097751703,0.185728254,0.312805462,1.114369512,0.244379282,0.097751703,0.263929605,0.234604096,0.439882708,0.860215092,0.195503416,0.293255119,0.293255119,1.319648147,1.133919835
0.058651023,0.097751703,0.175953078,0.312805462,1.065493703,0.234604096,0.097751703,0.254154444,0.234604096,0.420332336,0.879765415,0.195503416,0.293255119,0.3030303,1.290322542,1.10459435
0.068426199,0.097751703,0.185728254,0.3030303,1.026392937,0.234604096,0.097751703,0.254154444,0.224828935,0.400782013,0.928641224,0.185728254,0.273704791,0.293255119,1.251221895,1.075268865
0.068426199,0.097751703,0.185728254,0.293255119,0.997067451,0.224828935,0.097751703,0.254154444,0.215053773,0.391006832,0.918866062,0.185728254,0.273704791,0.283479958,1.182795639,1.075268865
0.068426199,0.097751703,0.185728254,0.293255119,1.016617775,0.215053773,0.097751703,0.244379282,0.215053773,0.371456504,1.006842613,0.185728254,0.273704791,0.293255119,1.133919835,1.133919835
0.068426199,0.097751703,0.175953078,0.283479958,0.98729229,0.215053773,0.097751703,0.244379282,0.215053773,0.361681342,1.075268865,0.185728254,0.273704791,0.293255119,1.094819183,1.212121248
0.078201365,0.087976542,0.166177917,0.283479958,0.938416386,0.215053773,0.097751703,0.244379282,0.205278587,0.351906157,1.04594326,0.185728254,0.273704791,0.283479958,1.10459435,1.212121248
0.078201365,0.087976542,0.166177917,0.273704791,0.918866062,0.215053773,0.097751703,0.234604096,0.205278587,0.342130995,1.114369512,0.195503416,0.273704791,0.293255119,1.10459435,1.202346087
0.078201365,0.087976542,0.156402731,0.273704791,0.9090909,0.224828935,0.097751703,0.234604096,0.205278587,0.332355833,1.114369512,0.215053773,0.263929605,0.293255119,1.133919835,1.260997057
0.078201365,0.078201365,0.156402731,0.263929605,0.9090909,0.273704791,0.097751703,0.234604096,0.195503416,0.322580624,1.114369512,0.215053773,0.263929605,0.283479958,1.173020482,1.270772219
0.078201365,0.078201365,0.14662756,0.254154444,0.918866062,0.273704791,0.097751703,0.254154444,0.195503416,0.3030303,1.16324532,0.224828935,0.263929605,0.273704791,1.212121248,1.260997057
0.078201365,0.068426199,0.14662756,0.244379282,0.957966709,0.3030303,0.107526886,0.254154444,0.185728254,0.312805462,1.231671572,0.224828935,0.263929605,0.273704791,1.241446733,1.290322542
0.078201365,0.068426199,0.14662756,0.244379282,0.967741871,0.312805462,0.107526886,0.263929605,0.185728254,0.3030303,1.202346087,0.215053773,0.254154444,0.273704791,1.28054738,1.270772219
0.068426199,0.068426199,0.136852396,0.244379282,0.967741871,0.312805462,0.117302048,0.263929605,0.205278587,0.293255119,1.212121248,0.215053773,0.263929605,0.273704791,1.309872866,1.251221895
0.058651023,0.068426199,0.136852396,0.244379282,0.918866062,0.312805462,0.117302048,0.263929605,0.224828935,0.3030303,1.212121248,0.215053773,0.244379282,0.263929605,1.329423308,1.202346087
0.058651023,0.068426199,0.136852396,0.254154444,0.899315739,0.332355833,0.117302048,0.254154444,0.244379282,0.3030303,1.202346087,0.224828935,0.234604096,0.263929605,1.348973632,1.192570925
0.058651023,0.058651023,0.127077222,0.254154444,0.879765415,0.332355833,0.117302048,0.234604096,0.244379282,0.293255119,1.212121248,0.234604096,0.234604096,0.263929605,1.368523955,1.182795639
0.058651023,0.058651023,0.117302048,0.254154444,0.889540577,0.322580624,0.117302048,0.224828935,0.234604096,0.293255119,1.251221895,0.224828935,0.234604096,0.263929605,1.358748794,1.16324532
0.058651023,0.058651023,0.117302048,0.244379282,0.899315739,0.312805462,0.127077222,0.224828935,0.224828935,0.293255119,1.241446733,0.244379282,0.234604096,0.263929605,1.368523955,1.182795639
0.058651023,0.058651023,0.117302048,0.234604096,0.879765415,0.3030303,0.127077222,0.224828935,0.234604096,0.3030303,1.202346087,0.244379282,0.234604096,0.273704791,1.319648147,1.202346087
0.048875852,0.048875852,0.117302048,0.224828935,0.918866062,0.342130995,0.117302048,0.215053773,0.234604096,0.293255119,1.16324532,0.244379282,0.224828935,0.283479958,1.309872866,1.16324532
0.058651023,0.048875852,0.117302048,0.234604096,0.928641224,0.351906157,0.117302048,0.205278587,0.234604096,0.293255119,1.182795639,0.244379282,0.224828935,0.283479958,1.260997057,1.173020482
0.048875852,0.048875852,0.107526886,0.224828935,0.928641224,0.361681342,0.117302048,0.205278587,0.234604096,0.3030303,1.182795639,0.234604096,0.224828935,0.273704791,1.260997057,1.153470159
0.058651023,0.048875852,0.107526886,0.215053773,0.9090909,0.351906157,0.117302048,0.195503416,0.234604096,0.3030303,1.173020482,0.244379282,0.234604096,0.263929605,1.241446733,1.143694997
0.058651023,0.048875852,0.107526886,0.205278587,0.879765415,0.361681342,0.117302048,0.215053773,0.234604096,0.312805462,1.212121248,0.244379282,0.224828935,0.283479958,1.202346087,1.16324532
0.058651023,0.048875852,0.107526886,0.195503416,0.85043993,0.371456504,0.117302048,0.224828935,0.234604096,0.293255119,1.173020482,0.244379282,0.224828935,0.293255119,1.173020482,1.260997057
0.058651023,0.048875852,0.107526886,0.195503416,0.860215092,0.391006832,0.127077222,0.244379282,0.234604096,0.293255119,1.173020482,0.234604096,0.224828935,0.322580624,1.153470159,1.319648147
0.058651023,0.039100683,0.107526886,0.195503416,0.869990253,0.38123167,0.136852396,0.244379282,0.224828935,0.3030303,1.133919835,0.234604096,0.215053773,0.312805462,1.124144673,1.329423308
0.058651023,0.039100683,0.107526886,0.205278587,0.840664673,0.38123167,0.136852396,0.254154444,0.215053773,0.3030303,1.094819183,0.254154444,0.224828935,0.312805462,1.075268865,1.33919847
0.058651023,0.048875852,0.107526886,0.215053773,0.830889511,0.391006832,0.136852396,0.254154444,0.215053773,0.3030303,1.055718422,0.254154444,0.224828935,0.3030303,1.04594326,1.348973632
0.058651023,0.048875852,0.117302048,0.224828935,0.821114349,0.391006832,0.14662756,0.244379282,0.215053773,0.293255119,1.026392937,0.263929605,0.234604096,0.293255119,1.016617775,1.300097704
0.058651023,0.048875852,0.117302048,0.254154444,0.811339188,0.391006832,0.136852396,0.234604096,0.215053773,0.283479958,1.006842613,0.254154444,0.234604096,0.283479958,0.977517128,1.309872866
0.058651023,0.048875852,0.107526886,0.263929605,0.791788864,0.400782013,0.136852396,0.224828935,0.224828935,0.273704791,0.977517128,0.263929605,0.234604096,0.273704791,0.938416386,1.270772219
0.058651023,0.048875852,0.107526886,0.254154444,0.762463331,0.400782013,0.136852396,0.224828935,0.215053773,0.283479958,0.967741871,0.273704791,0.234604096,0.263929605,0.9090909,1.231671572
0.058651023,0.058651023,0.097751703,0.254154444,0.742913008,0.391006832,0.127077222,0.215053773,0.215053773,0.273704791,1.006842613,0.263929605,0.224828935,0.263929605,0.889540577,1.202346087
0.058651023,0.068426199,0.097751703,0.254154444,0.713587475,0.38123167,0.117302048,0.205278587,0.224828935,0.283479958,1.026392937,0.254154444,0.234604096,0.244379282,0.869990253,1.231671572
0.058651023,0.078201365,0.097751703,0.244379282,0.68426199,0.38123167,0.127077222,0.195503416,0.215053773,0.283479958,1.065493703,0.254154444,0.234604096,0.244379282,0.840664673,1.212121248
0.058651023,0.078201365,0.097751703,0.234604096,0.674486828,0.371456504,0.127077222,0.195503416,0.215053773,0.273704791,1.055718422,0.234604096,0.224828935,0.234604096,0.830889511,1.192570925
0.058651023,0.078201365,0.107526886,0.234604096,0.654936409,0.361681342,0.127077222,0.195503416,0.205278587,0.283479958,1.173020482,0.234604096,0.215053773,0.234604096,0.801564026,1.173020482
0.058651023,0.087976542,0.107526886,0.234604096,0.645161247,0.342130995,0.127077222,0.185728254,0.215053773,0.293255119,1.231671572,0.234604096,0.234604096,0.224828935,0.801564026,1.192570925
0.058651023,0.087976542,0.117302048,0.234604096,0.625610924,0.351906157,0.136852396,0.185728254,0.234604096,0.283479958,1.22189641,0.234604096,0.234604096,0.234604096,0.782013655,1.202346087
0.058651023,0.087976542,0.127077222,0.224828935,0.596285439,0.332355833,0.14662756,0.175953078,0.234604096,0.293255119,1.182795639,0.244379282,0.234604096,0.224828935,0.791788864,1.22189641
0.058651023,0.097751703,0.127077222,0.254154444,0.576735067,0.342130995,0.136852396,0.185728254,0.234604096,0.293255119,1.143694997,0.244379282,0.234604096,0.224828935,0.752688169,1.202346087
0.048875852,0.097751703,0.117302048,0.263929605,0.566959906,0.342130995,0.136852396,0.185728254,0.234604096,0.3030303,1.114369512,0.244379282,0.224828935,0.224828935,0.733137846,1.182795639
0.048875852,0.097751703,0.117302048,0.312805462,0.53763442,0.361681342,0.136852396,0.195503416,0.244379282,0.3030303,1.094819183,0.244379282,0.224828935,0.224828935,0.713587475,1.173020482
0.048875852,0.107526886,0.127077222,0.312805462,0.518084049,0.391006832,0.136852396,0.205278587,0.273704791,0.3030303,1.055718422,0.244379282,0.224828935,0.215053773,0.694037151,1.173020482
0.048875852,0.107526886,0.127077222,0.312805462,0.518084049,0.420332336,0.136852396,0.205278587,0.283479958,0.312805462,1.065493703,0.234604096,0.215053773,0.224828935,0.664711666,1.182795639
0.048875852,0.107526886,0.127077222,0.312805462,0.527859211,0.420332336,0.136852396,0.205278587,0.273704791,0.3030303,1.036168098,0.224828935,0.224828935,0.234604096,0.645161247,1.143694997
0.048875852,0.107526886,0.127077222,0.293255119,0.518084049,0.410557175,0.136852396,0.195503416,0.263929605,0.3030303,0.997067451,0.215053773,0.224828935,0.244379282,0.625610924,1.10459435
0.048875852,0.107526886,0.127077222,0.283479958,0.518084049,0.410557175,0.127077222,0.205278587,0.263929605,0.293255119,0.977517128,0.205278587,0.224828935,0.234604096,0.6060606,1.065493703
0.048875852,0.117302048,0.117302048,0.273704791,0.518084049,0.410557175,0.127077222,0.205278587,0.263929605,0.283479958,1.006842613,0.205278587,0.224828935,0.224828935,0.6060606,1.036168098
0.058651023,0.117302048,0.117302048,0.273704791,0.508308887,0.420332336,0.127077222,0.195503416,0.293255119,0.273704791,0.98729229,0.205278587,0.224828935,0.234604096,0.586510229,1.016617775
0.058651023,0.117302048,0.117302048,0.263929605,0.508308887,0.430107546,0.127077222,0.185728254,0.3030303,0.273704791,1.04594326,0.205278587,0.224828935,0.234604096,0.557184744,0.98729229
0.058651023,0.107526886,0.117302048,0.273704791,0.527859211,0.430107546,0.127077222,0.185728254,0.3030303,0.263929605,1.006842613,0.205278587,0.224828935,0.224828935,0.576735067,0.967741871
0.058651023,0.107526886,0.117302048,0.263929605,0.53763442,0.420332336,0.127077222,0.175953078,0.3030303,0.273704791,1.085044022,0.224828935,0.215053773,0.224828935,0.566959906,0.957966709
0.058651023,0.107526886,0.117302048,0.254154444,0.518084049,0.459433031,0.136852396,0.166177917,0.3030303,0.263929605,1.16324532,0.224828935,0.215053773,0.215053773,0.566959906,0.948191547
0.058651023,0.107526886,0.107526886,0.244379282,0.508308887,0.478983355,0.136852396,0.156402731,0.312805462,0.263929605,1.231671572,0.224828935,0.215053773,0.205278587,0.576735067,0.918866062
0.058651023,0.107526886,0.107526886,0.254154444,0.518084049,0.547409582,0.136852396,0.156402731,0.322580624,0.254154444,1.22189641,0.215053773,0.215053773,0.195503416,0.547409582,0.899315739
0.058651023,0.107526886,0.107526886,0.254154444,0.53763442,0.53763442,0.136852396,0.166177917,0.322580624,0.254154444,1.173020482,0.215053773,0.234604096,0.205278587,0.547409582,0.899315739
0.058651023,0.097751703,0.107526886,0.263929605,0.576735067,0.566959906,0.136852396,0.166177917,0.322580624,0.244379282,1.143694997,0.215053773,0.215053773,0.205278587,0.547409582,0.860215092
0.068426199,0.097751703,0.107526886,0.273704791,0.576735067,0.576735067,0.136852396,0.175953078,0.3030303,0.244379282,1.133919835,0.205278587,0.215053773,0.205278587,0.53763442,0.830889511
0.068426199,0.087976542,0.117302048,0.273704791,0.566959906,0.566959906,0.127077222,0.175953078,0.3030303,0.254154444,1.10459435,0.195503416,0.215053773,0.195503416,0.547409582,0.860215092
0.068426199,0.087976542,0.127077222,0.263929605,0.547409582,0.566959906,0.127077222,0.166177917,0.322580624,0.263929605,1.075268865,0.195503416,0.215053773,0.195503416,0.527859211,0.85043993
0.068426199,0.087976542,0.127077222,0.254154444,0.53763442,0.557184744,0.127077222,0.166177917,0.3030303,0.254154444,1.036168098,0.195503416,0.215053773,0.195503416,0.518084049,0.840664673
0.068426199,0.087976542,0.136852396,0.283479958,0.527859211,0.557184744,0.127077222,0.156402731,0.312805462,0.263929605,1.065493703,0.205278587,0.215053773,0.195503416,0.527859211,0.830889511
0.068426199,0.087976542,0.136852396,0.293255119,0.566959906,0.566959906,0.136852396,0.166177917,0.322580624,0.263929605,1.085044022,0.205278587,0.215053773,0.185728254,0.518084049,0.791788864
0.068426199,0.087976542,0.136852396,0.312805462,0.547409582,0.576735067,0.14662756,0.156402731,0.312805462,0.263929605,1.114369512,0.215053773,0.215053773,0.175953078,0.498533726,0.782013655
0.078201365,0.087976542,0.127077222,0.3030303,0.547409582,0.566959906,0.14662756,0.156402731,0.3030303,0.3030303,1.10459435,0.215053773,0.215053773,0.175953078,0.518084049,0.772238493
0.068426199,0.087976542,0.127077222,0.3030303,0.547409582,0.576735067,0.14662756,0.14662756,0.283479958,0.293255119,1.085044022,0.215053773,0.215053773,0.175953078,0.527859211,0.742913008
0.068426199,0.087976542,0.117302048,0.293255119,0.557184744,0.586510229,0.156402731,0.14662756,0.283479958,0.3030303,1.094819183,0.215053773,0.224828935,0.195503416,0.508308887,0.742913008
0.068426199,0.087976542,0.107526886,0.283479958,0.53763442,0.635386086,0.156402731,0.136852396,0.273704791,0.312805462,1.10459435,0.205278587,0.215053773,0.215053773,0.498533726,0.733137846
0.068426199,0.097751703,0.107526886,0.273704791,0.547409582,0.654936409,0.14662756,0.136852396,0.293255119,0.312805462,1.065493703,0.215053773,0.234604096,0.234604096,0.488758564,0.723362684
0.068426199,0.117302048,0.107526886,0.263929605,0.53763442,0.703812313,0.14662756,0.127077222,0.312805462,0.3030303,1.065493703,0.215053773,0.234604096,0.244379282,0.478983355,0.703812313
0.068426199,0.136852396,0.097751703,0.254154444,0.53763442,0.713587475,0.136852396,0.127077222,0.312805462,0.3030303,1.075268865,0.224828935,0.234604096,0.234604096,0.478983355,0.723362684
0.068426199,0.156402731,0.097751703,0.263929605,0.547409582,0.752688169,0.136852396,0.117302048,0.312805462,0.312805462,1.036168098,0.224828935,0.234604096,0.234604096,0.459433031,0.723362684
0.068426199,0.195503416,0.097751703,0.263929605,0.547409582,0.762463331,0.136852396,0.117302048,0.322580624,0.3030303,1.006842613,0.234604096,0.224828935,0.234604096,0.449657869,0.713587475
0.058651023,0.215053773,0.087976542,0.273704791,0.527859211,0.762463331,0.136852396,0.107526886,0.332355833,0.293255119,0.957966709,0.224828935,0.224828935,0.234604096,0.439882708,0.713587475
0.068426199,0.244379282,0.087976542,0.283479958,0.518084049,0.742913008,0.136852396,0.107526886,0.371456504,0.322580624,0.928641224,0.215053773,0.224828935,0.234604096,0.430107546,0.723362684
0.068426199,0.234604096,0.087976542,0.293255119,0.518084049,0.723362684,0.127077222,0.107526886,0.371456504,0.312805462,0.9090909,0.224828935,0.215053773,0.224828935,0.420332336,0.703812313
0.068426199,0.224828935,0.087976542,0.283479958,0.518084049,0.723362684,0.14662756,0.107526886,0.361681342,0.312805462,0.869990253,0.224828935,0.224828935,0.224828935,0.410557175,0.703812313
0.068426199,0.254154444,0.078201365,0.293255119,0.518084049,0.733137846,0.14662756,0.107526886,0.351906157,0.322580624,0.85043993,0.224828935,0.234604096,0.224828935,0.430107546,0.694037151
0.078201365,0.244379282,0.078201365,0.312805462,0.488758564,0.762463331,0.14662756,0.107526886,0.351906157,0.312805462,0.821114349,0.234604096,0.254154444,0.224828935,0.430107546,0.674486828
0.078201365,0.244379282,0.078201365,0.312805462,0.478983355,0.762463331,0.156402731,0.097751703,0.342130995,0.322580624,0.782013655,0.234604096,0.254154444,0.234604096,0.420332336,0.674486828
0.078201365,0.234604096,0.078201365,0.322580624,0.459433031,0.821114349,0.156402731,0.117302048,0.351906157,0.322580624,0.742913008,0.234604096,0.244379282,0.244379282,0.439882708,0.645161247
0.078201365,0.234604096,0.078201365,0.3030303,0.439882708,0.840664673,0.156402731,0.117302048,0.342130995,0.312805462,0.723362684,0.224828935,0.254154444,0.254154444,0.420332336,0.635386086
0.078201365,0.234604096,0.068426199,0.3030303,0.410557175,0.9090909,0.166177917,0.117302048,0.332355833,0.312805462,0.723362684,0.224828935,0.244379282,0.254154444,0.420332336,0.625610924
0.078201365,0.234604096,0.068426199,0.3030303,0.410557175,0.938416386,0.166177917,0.107526886,0.312805462,0.312805462,0.703812313,0.244379282,0.234604096,0.263929605,0.410557175,0.615835762
0.078201365,0.224828935,0.068426199,0.293255119,0.420332336,0.9090909,0.166177917,0.107526886,0.3030303,0.342130995,0.713587475,0.234604096,0.244379282,0.263929605,0.400782013,0.625610924
0.078201365,0.215053773,0.068426199,0.293255119,0.420332336,0.918866062,0.166177917,0.117302048,0.293255119,0.351906157,0.694037151,0.244379282,0.263929605,0.254154444,0.400782013,0.645161247
0.078201365,0.215053773,0.058651023,0.283479958,0.410557175,0.889540577,0.166177917,0.107526886,0.3030303,0.342130995,0.703812313,0.254154444,0.254154444,0.254154444,0.400782013,0.635386086
0.078201365,0.215053773,0.068426199,0.273704791,0.430107546,0.9090909,0.185728254,0.107526886,0.3030303,0.332355833,0.68426199,0.254154444,0.244379282,0.234604096,0.430107546,0.635386086
0.068426199,0.215053773,0.068426199,0.263929605,0.430107546,0.879765415,0.185728254,0.107526886,0.293255119,0.351906157,0.664711666,0.273704791,0.263929605,0.224828935,0.410557175,0.625610924
0.068426199,0.205278587,0.068426199,0.263929605,0.420332336,0.840664673,0.195503416,0.097751703,0.283479958,0.342130995,0.635386086,0.283479958,0.263929605,0.224828935,0.410557175,0.615835762
0.068426199,0.195503416,0.058651023,0.273704791,0.410557175,0.85043993,0.185728254,0.107526886,0.293255119,0.332355833,0.615835762,0.283479958,0.263929605,0.234604096,0.400782013,0.625610924
0.068426199,0.205278587,0.068426199,0.273704791,0.400782013,0.869990253,0.185728254,0.097751703,0.293255119,0.332355833,0.596285439,0.273704791,0.254154444,0.224828935,0.400782013,0.615835762
0.058651023,0.215053773,0.068426199,0.273704791,0.400782013,0.889540577,0.185728254,0.097751703,0.293255119,0.322580624,0.576735067,0.273704791,0.263929605,0.224828935,0.391006832,0.615835762
0.068426199,0.205278587,0.068426199,0.254154444,0.400782013,0.918866062,0.205278587,0.097751703,0.293255119,0.322580624,0.576735067,0.3030303,0.263929605,0.244379282,0.400782013,0.635386086
0.058651023,0.205278587,0.068426199,0.244379282,0.420332336,0.948191547,0.205278587,0.097751703,0.293255119,0.332355833,0.557184744,0.3030303,0.263929605,0.244379282,0.400782013,0.654936409
0.058651023,0.205278587,0.068426199,0.234604096,0.430107546,1.006842613,0.195503416,0.107526886,0.293255119,0.332355833,0.566959906,0.3030303,0.254154444,0.234604096,0.410557175,0.615835762
0.058651023,0.215053773,0.068426199,0.254154444,0.459433031,0.98729229,0.205278587,0.107526886,0.283479958,0.342130995,0.576735067,0.3030303,0.263929605,0.234604096,0.400782013,0.6060606
0.058651023,0.205278587,0.058651023,0.244379282,0.488758564,1.016617775,0.195503416,0.107526886,0.283479958,0.332355833,0.586510229,0.3030303,0.254154444,0.254154444,0.400782013,0.586510229
0.058651023,0.195503416,0.068426199,0.234604096,0.488758564,1.006842613,0.195503416,0.117302048,0.283479958,0.322580624,0.6060606,0.293255119,0.263929605,0.263929605,0.391006832,0.557184744
0.058651023,0.205278587,0.068426199,0.234604096,0.488758564,1.006842613,0.215053773,0.107526886,0.293255119,0.342130995,0.6060606,0.312805462,0.263929605,0.273704791,0.38123167,0.557184744
0.058651023,0.215053773,0.068426199,0.234604096,0.498533726,1.094819183,0.215053773,0.107526886,0.283479958,0.351906157,0.576735067,0.293255119,0.263929605,0.273704791,0.38123167,0.547409582
0.058651023,0.205278587,0.068426199,0.224828935,0.53763442,1.114369512,0.215053773,0.117302048,0.273704791,0.342130995,0.596285439,0.293255119,0.254154444,0.283479958,0.371456504,0.547409582
0.058651023,0.195503416,0.068426199,0.224828935,0.547409582,1.114369512,0.215053773,0.136852396,0.273704791,0.342130995,0.615835762,0.293255119,0.254154444,0.293255119,0.400782013,0.527859211
0.058651023,0.185728254,0.068426199,0.224828935,0.53763442,1.094819183,0.224828935,0.127077222,0.263929605,0.342130995,0.6060606,0.293255119,0.263929605,0.312805462,0.38123167,0.508308887
0.058651023,0.185728254,0.078201365,0.224828935,0.518084049,1.065493703,0.234604096,0.127077222,0.254154444,0.342130995,0.596285439,0.293255119,0.273704791,0.332355833,0.371456504,0.488758564
0.068426199,0.175953078,0.078201365,0.224828935,0.508308887,1.055718422,0.234604096,0.136852396,0.244379282,0.332355833,0.6060606,0.293255119,0.273704791,0.351906157,0.38123167,0.508308887
0.068426199,0.215053773,0.078201365,0.234604096,0.508308887,1.036168098,0.234604096,0.156402731,0.234604096,0.342130995,0.6060606,0.293255119,0.273704791,0.391006832,0.400782013,0.508308887
0.068426199,0.234604096,0.078201365,0.234604096,0.498533726,1.006842613,0.244379282,0.156402731,0.234604096,0.332355833,0.586510229,0.283479958,0.283479958,0.420332336,0.38123167,0.498533726
0.068426199,0.234604096,0.078201365,0.234604096,0.488758564,0.977517128,0.244379282,0.166177917,0.234604096,0.322580624,0.576735067,0.283479958,0.283479958,0.430107546,0.38123167,0.498533726
0.078201365,0.244379282,0.087976542,0.244379282,0.469208193,0.957966709,0.244379282,0.175953078,0.234604096,0.312805462,0.557184744,0.283479958,0.293255119,0.469208193,0.371456504,0.478983355
0.068426199,0.254154444,0.087976542,0.244379282,0.469208193,0.957966709,0.234604096,0.185728254,0.234604096,0.3030303,0.547409582,0.283479958,0.283479958,0.478983355,0.371456504,0.469208193
0.068426199,0.244379282,0.087976542,0.263929605,0.488758564,0.967741871,0.234604096,0.185728254,0.234604096,0.3030303,0.53763442,0.273704791,0.283479958,0.478983355,0.351906157,0.459433031
0.068426199,0.244379282,0.087976542,0.263929605,0.478983355,0.957966709,0.234604096,0.195503416,0.234604096,0.293255119,0.527859211,0.273704791,0.3030303,0.478983355,0.332355833,0.449657869
0.058651023,0.234604096,0.097751703,0.273704791,0.478983355,0.948191547,0.234604096,0.185728254,0.234604096,0.283479958,0.518084049,0.273704791,0.312805462,0.488758564,0.342130995,0.439882708
0.068426199,0.224828935,0.087976542,0.263929605,0.469208193,0.928641224,0.224828935,0.185728254,0.224828935,0.293255119,0.508308887,0.263929605,0.322580624,0.498533726,0.332355833,0.430107546
0.058651023,0.215053773,0.087976542,0.273704791,0.459433031,0.899315739,0.263929605,0.185728254,0.234604096,0.283479958,0.498533726,0.263929605,0.312805462,0.508308887,0.342130995,0.420332336
0.068426199,0.224828935,0.087976542,0.273704791,0.459433031,0.879765415,0.283479958,0.195503416,0.234604096,0.283479958,0.488758564,0.254154444,0.322580624,0.527859211,0.332355833,0.410557175
0.068426199,0.215053773,0.087976542,0.273704791,0.459433031,0.899315739,0.273704791,0.195503416,0.234604096,0.283479958,0.498533726,0.254154444,0.332355833,0.518084049,0.332355833,0.400782013
0.068426199,0.215053773,0.078201365,0.273704791,0.449657869,0.860215092,0.273704791,0.195503416,0.234604096,0.283479958,0.488758564,0.283479958,0.351906157,0.527859211,0.332355833,0.391006832
0.058651023,0.215053773,0.078201365,0.263929605,0.449657869,0.840664673,0.273704791,0.195503416,0.224828935,0.293255119,0.488758564,0.293255119,0.351906157,0.527859211,0.332355833,0.400782013
0.068426199,0.215053773,0.078201365,0.263929605,0.449657869,0.830889511,0.263929605,0.195503416,0.215053773,0.283479958,0.478983355,0.283479958,0.361681342,0.53763442,0.332355833,0.38123167
0.068426199,0.215053773,0.078201365,0.273704791,0.488758564,0.869990253,0.254154444,0.185728254,0.205278587,0.273704791,0.469208193,0.283479958,0.371456504,0.547409582,0.332355833,0.371456504
0.068426199,0.215053773,0.068426199,0.263929605,0.508308887,0.938416386,0.244379282,0.185728254,0.205278587,0.273704791,0.439882708,0.293255119,0.38123167,0.547409582,0.332355833,0.361681342
0.068426199,0.215053773,0.078201365,0.254154444,0.557184744,0.948191547,0.263929605,0.195503416,0.205278587,0.273704791,0.430107546,0.3030303,0.400782013,0.53763442,0.351906157,0.351906157
0.068426199,0.205278587,0.068426199,0.273704791,0.586510229,0.948191547,0.273704791,0.185728254,0.205278587,0.273704791,0.420332336,0.322580624,0.420332336,0.518084049,0.361681342,0.332355833
0.068426199,0.205278587,0.068426199,0.263929605,0.6060606,0.918866062,0.273704791,0.175953078,0.195503416,0.263929605,0.410557175,0.322580624,0.449657869,0.518084049,0.361681342,0.322580624
0.068426199,0.195503416,0.058651023,0.254154444,0.645161247,0.938416386,0.273704791,0.166177917,0.195503416,0.254154444,0.391006832,0.322580624,0.449657869,0.518084049,0.361681342,0.312805462
0.068426199,0.205278587,0.058651023,0.244379282,0.674486828,0.938416386,0.293255119,0.166177917,0.195503416,0.254154444,0.38123167,0.322580624,0.469208193,0.498533726,0.361681342,0.312805462
0.068426199,0.205278587,0.058651023,0.234604096,0.703812313,0.918866062,0.293255119,0.166177917,0.195503416,0.263929605,0.371456504,0.351906157,0.498533726,0.488758564,0.361681342,0.312805462
0.068426199,0.215053773,0.048875852,0.234604096,0.772238493,0.879765415,0.3030303,0.166177917,0.185728254,0.254154444,0.351906157,0.351906157,0.527859211,0.488758564,0.351906157,0.342130995
0.068426199,0.215053773,0.058651023,0.254154444,0.811339188,0.840664673,0.293255119,0.156402731,0.185728254,0.273704791,0.342130995,0.391006832,0.547409582,0.478983355,0.332355833,0.361681342
0.068426199,0.215053773,0.048875852,0.254154444,0.879765415,0.85043993,0.283479958,0.156402731,0.185728254,0.293255119,0.322580624,0.410557175,0.586510229,0.469208193,0.322580624,0.371456504
0.068426199,0.205278587,0.048875852,0.254154444,1.036168098,0.830889511,0.3030303,0.14662756,0.185728254,0.283479958,0.312805462,0.449657869,0.6060606,0.488758564,0.322580624,0.400782013
0.078201365,0.205278587,0.048875852,0.254154444,1.212121248,0.830889511,0.3030303,0.14662756,0.185728254,0.273704791,0.312805462,0.478983355,0.635386086,0.508308887,0.342130995,0.449657869
0.078201365,0.215053773,0.048875852,0.244379282,1.417399788,0.821114349,0.342130995,0.14662756,0.185728254,0.263929605,0.3030303,0.498533726,0.68426199,0.53763442,0.332355833,0.439882708
0.078201365,0.205278587,0.048875852,0.244379282,1.59335289,0.801564026,0.371456504,0.14662756,0.175953078,0.254154444,0.3030303,0.53763442,0.713587475,0.576735067,0.332355833,0.449657869
0.078201365,0.205278587,0.058651023,0.244379282,1.603128052,0.782013655,0.391006832,0.14662756,0.185728254,0.254154444,0.283479958,0.557184744,0.762463331,0.566959906,0.332355833,0.469208193
0.078201365,0.205278587,0.058651023,0.244379282,1.730205297,0.752688169,0.400782013,0.14662756,0.185728254,0.254154444,0.273704791,0.576735067,0.791788864,0.547409582,0.322580624,0.508308887
0.078201365,0.195503416,0.058651023,0.234604096,1.867057705,0.733137846,0.410557175,0.14662756,0.175953078,0.244379282,0.263929605,0.566959906,0.830889511,0.547409582,0.322580624,0.53763442
0.078201365,0.205278587,0.058651023,0.234604096,1.89638319,0.703812313,0.400782013,0.156402731,0.175953078,0.244379282,0.254154444,0.6060606,0.869990253,0.547409582,0.312805462,0.557184744
0.087976542,0.195503416,0.068426199,0.234604096,1.915933514,0.68426199,0.391006832,0.156402731,0.175953078,0.234604096,0.263929605,0.674486828,0.928641224,0.53763442,0.293255119,0.645161247
0.087976542,0.185728254,0.068426199,0.244379282,1.867057705,0.664711666,0.38123167,0.156402731,0.175953078,0.234604096,0.254154444,0.723362684,0.98729229,0.518084049,0.293255119,0.694037151
0.078201365,0.185728254,0.078201365,0.244379282,1.827957058,0.654936409,0.400782013,0.156402731,0.175953078,0.244379282,0.254154444,0.752688169,1.055718422,0.53763442,0.283479958,0.752688169
0.078201365,0.185728254,0.087976542,0.254154444,1.818181896,0.625610924,0.410557175,0.14662756,0.185728254,0.234604096,0.263929605,0.762463331,1.114369512,0.53763442,0.283479958,0.821114349
0.078201365,0.185728254,0.087976542,0.244379282,1.769305944,0.625610924,0.410557175,0.14662756,0.185728254,0.244379282,0.263929605,0.801564026,1.202346087,0.508308887,0.293255119,0.879765415
0.078201365,0.195503416,0.087976542,0.244379282,1.788856268,0.615835762,0.400782013,0.14662756,0.195503416,0.234604096,0.254154444,0.85043993,1.300097704,0.488758564,0.293255119,0.977517128
0.078201365,0.195503416,0.087976542,0.234604096,1.876832867,0.615835762,0.391006832,0.136852396,0.195503416,0.234604096,0.244379282,0.860215092,1.397849445,0.469208193,0.312805462,1.065493703
0.078201365,0.195503416,0.097751703,0.224828935,1.925708675,0.625610924,0.410557175,0.136852396,0.185728254,0.234604096,0.234604096,0.869990253,1.524926662,0.469208193,0.322580624,1.085044022
0.068426199,0.195503416,0.097751703,0.234604096,1.955034256,0.635386086,0.410557175,0.127077222,0.195503416,0.234604096,0.234604096,0.869990253,1.573802567,0.449657869,0.312805462,1.055718422
0.068426199,0.195503416,0.097751703,0.234604096,1.974584579,0.615835762,0.391006832,0.127077222,0.195503416,0.234604096,0.244379282,0.85043993,1.515151501,0.449657869,0.312805462,0.997067451
0.058651023,0.195503416,0.087976542,0.244379282,1.964809418,0.625610924,0.391006832,0.117302048,0.195503416,0.224828935,0.244379282,0.860215092,1.436950111,0.459433031,0.3030303,1.006842613
0.058651023,0.205278587,0.087976542,0.244379282,1.984359741,0.635386086,0.391006832,0.117302048,0.205278587,0.215053773,0.234604096,0.879765415,1.368523955,0.459433031,0.3030303,1.065493703
0.058651023,0.205278587,0.087976542,0.244379282,2.003910065,0.635386086,0.439882708,0.117302048,0.205278587,0.205278587,0.244379282,0.85043993,1.290322542,0.469208193,0.3030303,1.10459435
0.058651023,0.205278587,0.087976542,0.254154444,1.955034256,0.615835762,0.430107546,0.117302048,0.205278587,0.215053773,0.244379282,0.821114349,1.22189641,0.478983355,0.293255119,1.143694997
0.058651023,0.195503416,0.087976542,0.263929605,1.876832867,0.596285439,0.430107546,0.117302048,0.195503416,0.215053773,0.244379282,0.830889511,1.153470159,0.488758564,0.3030303,1.182795639
0.048875852,0.185728254,0.078201365,0.254154444,1.808406639,0.576735067,0.449657869,0.107526886,0.195503416,0.215053773,0.254154444,0.840664673,1.309872866,0.478983355,0.3030303,1.133919835
0.048875852,0.185728254,0.078201365,0.244379282,1.730205297,0.566959906,0.449657869,0.117302048,0.195503416,0.215053773,0.254154444,0.811339188,1.69110465,0.508308887,0.312805462,1.085044022
0.048875852,0.185728254,0.068426199,0.244379282,1.642228699,0.557184744,0.459433031,0.107526886,0.195503416,0.215053773,0.244379282,0.782013655,2.052785873,0.527859211,0.312805462,1.075268865
0.048875852,0.215053773,0.068426199,0.234604096,1.564027309,0.547409582,0.449657869,0.107526886,0.185728254,0.215053773,0.254154444,0.791788864,2.218963861,0.508308887,0.312805462,1.055718422
0.048875852,0.215053773,0.068426199,0.234604096,1.524926662,0.527859211,0.430107546,0.107526886,0.185728254,0.234604096,0.244379282,0.742913008,2.228739023,0.518084049,0.3030303,1.04594326
0.048875852,0.215053773,0.068426199,0.234604096,1.466275692,0.508308887,0.459433031,0.107526886,0.195503416,0.234604096,0.234604096,0.742913008,2.189638376,0.527859211,0.3030303,1.006842613
0.058651023,0.224828935,0.068426199,0.234604096,1.397849445,0.527859211,0.488758564,0.107526886,0.205278587,0.224828935,0.234604096,0.713587475,2.140762568,0.518084049,0.3030303,0.948191547
0.058651023,0.215053773,0.068426199,0.215053773,1.33919847,0.527859211,0.518084049,0.107526886,0.195503416,0.224828935,0.234604096,0.713587475,2.052785873,0.508308887,0.332355833,0.899315739
0.058651023,0.234604096,0.068426199,0.215053773,1.319648147,0.527859211,0.547409582,0.117302048,0.195503416,0.244379282,0.234604096,0.68426199,1.945259094,0.508308887,0.351906157,0.869990253
0.058651023,0.244379282,0.068426199,0.215053773,1.300097704,0.518084049,0.53763442,0.117302048,0.195503416,0.234604096,0.234604096,0.68426199,1.857282543,0.527859211,0.351906157,0.85043993
0.058651023,0.244379282,0.058651023,0.215053773,1.270772219,0.508308887,0.547409582,0.127077222,0.185728254,0.224828935,0.244379282,0.68426199,1.779081106,0.527859211,0.361681342,0.801564026
0.058651023,0.244379282,0.058651023,0.215053773,1.270772219,0.508308887,0.576735067,0.127077222,0.185728254,0.215053773,0.254154444,0.68426199,1.710654974,0.508308887,0.371456504,0.762463331
0.058651023,0.234604096,0.058651023,0.205278587,1.251221895,0.488758564,0.557184744,0.127077222,0.185728254,0.224828935,0.234604096,0.68426199,1.632453537,0.508308887,0.361681342,0.723362684
0.058651023,0.254154444,0.058651023,0.205278587,1.212121248,0.478983355,0.566959906,0.117302048,0.185728254,0.224828935,0.234604096,0.703812313,1.583577728,0.488758564,0.351906157,0.694037151
0.058651023,0.283479958,0.058651023,0.205278587,1.212121248,0.459433031,0.576735067,0.117302048,0.185728254,0.224828935,0.234604096,0.703812313,1.524926662,0.459433031,0.351906157,0.713587475
0.058651023,0.283479958,0.048875852,0.215053773,1.173020482,0.439882708,0.6060606,0.117302048,0.195503416,0.224828935,0.234604096,0.68426199,1.485826015,0.449657869,0.351906157,0.703812313
0.058651023,0.273704791,0.048875852,0.205278587,1.143694997,0.430107546,0.635386086,0.127077222,0.185728254,0.234604096,0.224828935,0.694037151,1.42717495,0.430107546,0.351906157,0.703812313
0.058651023,0.263929605,0.048875852,0.195503416,1.143694997,0.420332336,0.645161247,0.127077222,0.195503416,0.234604096,0.215053773,0.664711666,1.388074284,0.420332336,0.361681342,0.674486828
0.048875852,0.3030303,0.048875852,0.195503416,1.094819183,0.410557175,0.625610924,0.136852396,0.195503416,0.244379282,0.224828935,0.68426199,1.33919847,0.410557175,0.371456504,0.645161247
0.048875852,0.322580624,0.048875852,0.195503416,1.065493703,0.400782013,0.615835762,0.136852396,0.185728254,0.234604096,0.215053773,0.68426199,1.270772219,0.400782013,0.400782013,0.635386086
0.048875852,0.342130995,0.058651023,0.195503416,1.04594326,0.410557175,0.615835762,0.136852396,0.185728254,0.234604096,0.215053773,0.674486828,1.22189641,0.391006832,0.439882708,0.6060606
0.048875852,0.342130995,0.058651023,0.185728254,0.997067451,0.400782013,0.6060606,0.14662756,0.185728254,0.234604096,0.205278587,0.664711666,1.173020482,0.38123167,0.430107546,0.596285439
0.048875852,0.342130995,0.058651023,0.185728254,0.997067451,0.391006832,0.586510229,0.156402731,0.185728254,0.224828935,0.215053773,0.68426199,1.124144673,0.371456504,0.439882708,0.566959906
0.048875852,0.332355833,0.058651023,0.185728254,0.977517128,0.38123167,0.596285439,0.14662756,0.185728254,0.215053773,0.205278587,0.664711666,1.075268865,0.361681342,0.478983355,0.576735067
0.048875852,0.332355833,0.068426199,0.185728254,0.948191547,0.361681342,0.6060606,0.156402731,0.185728254,0.224828935,0.224828935,0.645161247,1.016617775,0.342130995,0.527859211,0.586510229
0.048875852,0.361681342,0.078201365,0.175953078,0.918866062,0.351906157,0.586510229,0.175953078,0.195503416,0.224828935,0.215053773,0.625610924,0.997067451,0.351906157,0.547409582,0.566959906
0.048875852,0.361681342,0.078201365,0.175953078,0.938416386,0.342130995,0.635386086,0.175953078,0.195503416,0.224828935,0.224828935,0.615835762,0.967741871,0.332355833,0.557184744,0.547409582
0.058651023,0.361681342,0.078201365,0.166177917,0.889540577,0.332355833,0.635386086,0.175953078,0.185728254,0.234604096,0.234604096,0.586510229,0.928641224,0.342130995,0.557184744,0.547409582
0.058651023,0.351906157,0.068426199,0.166177917,0.869990253,0.361681342,0.68426199,0.166177917,0.195503416,0.224828935,0.234604096,0.566959906,0.9090909,0.332355833,0.53763442,0.53763442
0.058651023,0.361681342,0.078201365,0.156402731,0.830889511,0.351906157,0.68426199,0.166177917,0.185728254,0.224828935,0.234604096,0.547409582,0.899315739,0.332355833,0.527859211,0.518084049
0.068426199,0.391006832,0.078201365,0.156402731,0.840664673,0.342130995,0.664711666,0.156402731,0.195503416,0.224828935,0.234604096,0.547409582,0.899315739,0.312805462,0.527859211,0.498533726
0.068426199,0.400782013,0.078201365,0.156402731,0.821114349,0.332355833,0.723362684,0.166177917,0.195503416,0.224828935,0.263929605,0.557184744,0.899315739,0.312805462,0.518084049,0.488758564
0.068426199,0.391006832,0.078201365,0.14662756,0.772238493,0.332355833,0.830889511,0.175953078,0.195503416,0.224828935,0.273704791,0.576735067,0.928641224,0.3030303,0.518084049,0.469208193
0.068426199,0.391006832,0.087976542,0.14662756,0.742913008,0.322580624,0.860215092,0.166177917,0.195503416,0.215053773,0.283479958,0.586510229,0.918866062,0.3030303,0.498533726,0.449657869
0.058651023,0.371456504,0.087976542,0.14662756,0.762463331,0.312805462,0.889540577,0.166177917,0.195503416,0.215053773,0.283479958,0.596285439,0.889540577,0.293255119,0.488758564,0.430107546
0.058651023,0.371456504,0.097751703,0.14662756,0.723362684,0.3030303,0.869990253,0.175953078,0.195503416,0.234604096,0.283479958,0.6060606,0.879765415,0.273704791,0.478983355,0.420332336
0.068426199,0.38123167,0.097751703,0.14662756,0.703812313,0.293255119,0.830889511,0.175953078,0.195503416,0.224828935,0.283479958,0.615835762,0.860215092,0.283479958,0.469208193,0.420332336
0.058651023,0.38123167,0.097751703,0.136852396,0.694037151,0.293255119,0.830889511,0.175953078,0.205278587,0.224828935,0.3030303,0.596285439,0.821114349,0.273704791,0.469208193,0.410557175
0.058651023,0.400782013,0.087976542,0.14662756,0.68426199,0.283479958,0.801564026,0.175953078,0.215053773,0.234604096,0.293255119,0.586510229,0.801564026,0.263929605,0.478983355,0.400782013
0.058651023,0.400782013,0.087976542,0.156402731,0.664711666,0.273704791,0.811339188,0.185728254,0.205278587,0.224828935,0.283479958,0.635386086,0.782013655,0.263929605,0.469208193,0.400782013
0.058651023,0.400782013,0.087976542,0.156402731,0.625610924,0.273704791,0.85043993,0.185728254,0.205278587,0.215053773,0.283479958,0.625610924,0.742913008,0.263929605,0.459433031,0.400782013
0.058651023,0.400782013,0.087976542,0.14662756,0.625610924,0.273704791,0.899315739,0.185728254,0.215053773,0.224828935,0.293255119,0.615835762,0.703812313,0.254154444,0.459433031,0.420332336
0.058651023,0.430107546,0.087976542,0.156402731,0.6060606,0.263929605,0.967741871,0.185728254,0.215053773,0.215053773,0.3030303,0.615835762,0.674486828,0.254154444,0.449657869,0.430107546
0.058651023,0.420332336,0.087976542,0.156402731,0.586510229,0.254154444,0.98729229,0.175953078,0.205278587,0.215053773,0.3030303,0.645161247,0.645161247,0.263929605,0.430107546,0.430107546
0.058651023,0.439882708,0.087976542,0.175953078,0.576735067,0.244379282,1.055718422,0.175953078,0.195503416,0.205278587,0.3030303,0.645161247,0.635386086,0.273704791,0.430107546,0.420332336
0.058651023,0.439882708,0.087976542,0.185728254,0.547409582,0.234604096,1.04594326,0.195503416,0.195503416,0.195503416,0.293255119,0.674486828,0.615835762,0.273704791,0.439882708,0.439882708
0.058651023,0.449657869,0.087976542,0.185728254,0.53763442,0.224828935,0.997067451,0.195503416,0.195503416,0.205278587,0.3030303,0.68426199,0.6060606,0.263929605,0.430107546,0.430107546
0.058651023,0.439882708,0.087976542,0.185728254,0.53763442,0.215053773,0.98729229,0.185728254,0.195503416,0.205278587,0.3030303,0.654936409,0.6060606,0.263929605,0.400782013,0.420332336
0.058651023,0.430107546,0.087976542,0.185728254,0.527859211,0.224828935,1.006842613,0.185728254,0.195503416,0.205278587,0.3030303,0.703812313,0.576735067,0.273704791,0.400782013,0.420332336
0.058651023,0.420332336,0.087976542,0.185728254,0.547409582,0.234604096,1.006842613,0.185728254,0.195503416,0.205278587,0.312805462,0.694037151,0.557184744,0.273704791,0.38123167,0.420332336
0.058651023,0.410557175,0.087976542,0.175953078,0.557184744,0.244379282,1.016617775,0.185728254,0.185728254,0.205278587,0.312805462,0.703812313,0.547409582,0.273704791,0.38123167,0.410557175
0.058651023,0.410557175,0.097751703,0.166177917,0.586510229,0.254154444,0.997067451,0.175953078,0.185728254,0.205278587,0.3030303,0.733137846,0.547409582,0.263929605,0.38123167,0.410557175
0.058651023,0.430107546,0.097751703,0.166177917,0.586510229,0.263929605,1.026392937,0.175953078,0.175953078,0.224828935,0.293255119,0.723362684,0.527859211,0.293255119,0.410557175,0.400782013
0.058651023,0.410557175,0.097751703,0.166177917,0.596285439,0.254154444,1.006842613,0.195503416,0.166177917,0.215053773,0.283479958,0.742913008,0.53763442,0.283479958,0.391006832,0.400782013
0.058651023,0.410557175,0.097751703,0.156402731,0.6060606,0.263929605,1.016617775,0.205278587,0.166177917,0.215053773,0.293255119,0.752688169,0.518084049,0.283479958,0.38123167,0.420332336
0.058651023,0.400782013,0.097751703,0.156402731,0.615835762,0.244379282,1.006842613,0.244379282,0.166177917,0.205278587,0.283479958,0.752688169,0.518084049,0.273704791,0.371456504,0.420332336
0.058651023,0.400782013,0.087976542,0.156402731,0.635386086,0.254154444,1.04594326,0.244379282,0.166177917,0.215053773,0.273704791,0.742913008,0.498533726,0.293255119,0.38123167,0.410557175
0.058651023,0.391006832,0.087976542,0.14662756,0.635386086,0.244379282,1.036168098,0.234604096,0.156402731,0.215053773,0.263929605,0.752688169,0.488758564,0.293255119,0.38123167,0.410557175
0.058651023,0.391006832,0.087976542,0.14662756,0.625610924,0.244379282,1.036168098,0.234604096,0.156402731,0.234604096,0.293255119,0.801564026,0.488758564,0.283479958,0.38123167,0.400782013
0.058651023,0.420332336,0.087976542,0.14662756,0.596285439,0.234604096,1.055718422,0.224828935,0.156402731,0.234604096,0.293255119,0.772238493,0.478983355,0.293255119,0.371456504,0.400782013
0.058651023,0.449657869,0.087976542,0.136852396,0.586510229,0.234604096,1.065493703,0.224828935,0.156402731,0.224828935,0.293255119,0.742913008,0.459433031,0.283479958,0.371456504,0.400782013
0.058651023,0.527859211,0.087976542,0.136852396,0.566959906,0.273704791,1.055718422,0.215053773,0.14662756,0.224828935,0.312805462,0.752688169,0.478983355,0.273704791,0.371456504,0.410557175
0.058651023,0.576735067,0.087976542,0.136852396,0.53763442,0.312805462,1.10459435,0.215053773,0.156402731,0.234604096,0.322580624,0.742913008,0.469208193,0.283479958,0.351906157,0.410557175
0.058651023,0.586510229,0.087976542,0.127077222,0.527859211,0.312805462,1.114369512,0.215053773,0.156402731,0.234604096,0.342130995,0.782013655,0.459433031,0.293255119,0.361681342,0.410557175
0.058651023,0.6060606,0.087976542,0.127077222,0.498533726,0.3030303,1.075268865,0.215053773,0.14662756,0.254154444,0.351906157,0.782013655,0.488758564,0.283479958,0.342130995,0.410557175
0.068426199,0.615835762,0.097751703,0.136852396,0.478983355,0.3030303,1.085044022,0.205278587,0.156402731,0.273704791,0.351906157,0.752688169,0.478983355,0.273704791,0.332355833,0.391006832
0.058651023,0.615835762,0.087976542,0.127077222,0.498533726,0.3030303,1.085044022,0.205278587,0.166177917,0.263929605,0.361681342,0.762463331,0.478983355,0.273704791,0.332355833,0.400782013
0.058651023,0.654936409,0.107526886,0.136852396,0.488758564,0.312805462,1.065493703,0.205278587,0.166177917,0.283479958,0.371456504,0.723362684,0.508308887,0.283479958,0.342130995,0.38123167
0.058651023,0.674486828,0.117302048,0.127077222,0.469208193,0.312805462,1.016617775,0.205278587,0.166177917,0.3030303,0.361681342,0.703812313,0.518084049,0.283479958,0.342130995,0.371456504
0.068426199,0.703812313,0.127077222,0.127077222,0.478983355,0.293255119,0.967741871,0.205278587,0.166177917,0.3030303,0.361681342,0.772238493,0.508308887,0.263929605,0.322580624,0.361681342
0.058651023,0.713587475,0.14662756,0.117302048,0.488758564,0.283479958,0.948191547,0.205278587,0.166177917,0.3030303,0.361681342,0.811339188,0.508308887,0.263929605,0.322580624,0.371456504
0.058651023,0.782013655,0.156402731,0.117302048,0.488758564,0.273704791,0.928641224,0.215053773,0.166177917,0.312805462,0.351906157,0.948191547,0.498533726,0.263929605,0.312805462,0.38123167
0.058651023,0.782013655,0.156402731,0.127077222,0.478983355,0.273704791,0.899315739,0.224828935,0.166177917,0.312805462,0.361681342,0.957966709,0.53763442,0.263929605,0.312805462,0.371456504
0.058651023,0.821114349,0.166177917,0.127077222,0.459433031,0.273704791,0.869990253,0.244379282,0.156402731,0.322580624,0.361681342,0.98729229,0.53763442,0.254154444,0.322580624,0.371456504
0.058651023,0.821114349,0.166177917,0.127077222,0.439882708,0.273704791,0.840664673,0.234604096,0.166177917,0.332355833,0.361681342,0.997067451,0.566959906,0.244379282,0.322580624,0.38123167
0.058651023,0.869990253,0.166177917,0.117302048,0.439882708,0.273704791,0.840664673,0.263929605,0.156402731,0.332355833,0.351906157,1.036168098,0.596285439,0.234604096,0.312805462,0.400782013
0.058651023,0.860215092,0.175953078,0.127077222,0.430107546,0.293255119,0.821114349,0.273704791,0.156402731,0.322580624,0.351906157,1.04594326,0.635386086,0.224828935,0.312805462,0.400782013
0.058651023,0.85043993,0.175953078,0.127077222,0.420332336,0.293255119,0.772238493,0.293255119,0.156402731,0.342130995,0.351906157,1.085044022,0.664711666,0.215053773,0.3030303,0.400782013
0.058651023,0.85043993,0.166177917,0.127077222,0.410557175,0.293255119,0.742913008,0.283479958,0.156402731,0.322580624,0.342130995,1.10459435,0.703812313,0.224828935,0.293255119,0.400782013
0.058651023,0.85043993,0.156402731,0.127077222,0.400782013,0.293255119,0.723362684,0.312805462,0.156402731,0.332355833,0.342130995,1.143694997,0.713587475,0.234604096,0.293255119,0.410557175
0.058651023,0.821114349,0.166177917,0.127077222,0.38123167,0.312805462,0.713587475,0.332355833,0.166177917,0.342130995,0.332355833,1.173020482,0.762463331,0.234604096,0.293255119,0.420332336
0.058651023,0.801564026,0.166177917,0.127077222,0.38123167,0.293255119,0.713587475,0.351906157,0.166177917,0.342130995,0.332355833,1.124144673,0.821114349,0.224828935,0.293255119,0.430107546
0.068426199,0.879765415,0.175953078,0.127077222,0.361681342,0.283479958,0.733137846,0.371456504,0.175953078,0.332355833,0.332355833,1.202346087,0.85043993,0.224828935,0.273704791,0.420332336
0.058651023,0.938416386,0.166177917,0.127077222,0.361681342,0.273704791,0.733137846,0.371456504,0.185728254,0.342130995,0.342130995,1.192570925,0.869990253,0.224828935,0.273704791,0.410557175
0.058651023,1.036168098,0.166177917,0.117302048,0.342130995,0.273704791,0.703812313,0.430107546,0.195503416,0.342130995,0.342130995,1.173020482,0.899315739,0.224828935,0.283479958,0.410557175
0.068426199,1.075268865,0.166177917,0.117302048,0.332355833,0.263929605,0.68426199,0.420332336,0.195503416,0.332355833,0.351906157,1.202346087,0.918866062,0.215053773,0.283479958,0.391006832
0.068426199,1.036168098,0.156402731,0.107526886,0.322580624,0.283479958,0.654936409,0.420332336,0.205278587,0.332355833,0.342130995,1.16324532,0.977517128,0.215053773,0.293255119,0.38123167
0.058651023,1.026392937,0.156402731,0.107526886,0.322580624,0.3030303,0.645161247,0.410557175,0.205278587,0.342130995,0.322580624,1.182795639,1.026392937,0.215053773,0.283479958,0.361681342
0.058651023,0.997067451,0.166177917,0.107526886,0.312805462,0.3030303,0.625610924,0.420332336,0.185728254,0.351906157,0.322580624,1.133919835,1.016617775,0.205278587,0.283479958,0.361681342
0.058651023,0.967741871,0.185728254,0.097751703,0.293255119,0.312805462,0.635386086,0.430107546,0.185728254,0.342130995,0.312805462,1.085044022,1.055718422,0.205278587,0.263929605,0.371456504
0.058651023,0.938416386,0.185728254,0.097751703,0.293255119,0.312805462,0.635386086,0.430107546,0.185728254,0.332355833,0.312805462,1.055718422,1.075268865,0.215053773,0.263929605,0.371456504
0.058651023,0.9090909,0.185728254,0.097751703,0.312805462,0.351906157,0.615835762,0.449657869,0.175953078,0.332355833,0.3030303,1.026392937,1.085044022,0.205278587,0.263929605,0.361681342
0.058651023,0.918866062,0.195503416,0.097751703,0.322580624,0.38123167,0.615835762,0.430107546,0.175953078,0.332355833,0.293255119,1.006842613,1.10459435,0.205278587,0.254154444,0.400782013
0.058651023,1.036168098,0.185728254,0.097751703,0.332355833,0.38123167,0.645161247,0.430107546,0.185728254,0.322580624,0.283479958,0.997067451,1.10459435,0.205278587,0.244379282,0.410557175
0.058651023,1.026392937,0.185728254,0.087976542,0.351906157,0.391006832,0.645161247,0.459433031,0.175953078,0.332355833,0.283479958,1.055718422,1.10459435,0.195503416,0.244379282,0.420332336
0.068426199,1.026392937,0.185728254,0.087976542,0.342130995,0.38123167,0.674486828,0.459433031,0.175953078,0.312805462,0.283479958,1.10459435,1.153470159,0.195503416,0.244379282,0.420332336
0.068426199,1.04594326,0.175953078,0.087976542,0.342130995,0.371456504,0.713587475,0.478983355,0.175953078,0.3030303,0.273704791,1.075268865,1.143694997,0.195503416,0.244379282,0.420332336
0.068426199,1.055718422,0.175953078,0.087976542,0.332355833,0.361681342,0.752688169,0.459433031,0.166177917,0.3030303,0.273704791,1.075268865,1.143694997,0.205278587,0.244379282,0.420332336
0.068426199,1.16324532,0.185728254,0.087976542,0.332355833,0.38123167,0.733137846,0.449657869,0.175953078,0.3030303,0.273704791,1.094819183,1.10459435,0.195503416,0.244379282,0.430107546
0.068426199,1.173020482,0.185728254,0.087976542,0.322580624,0.371456504,0.723362684,0.439882708,0.175953078,0.293255119,0.273704791,1.10459435,1.114369512,0.205278587,0.263929605,0.420332336
0.068426199,1.22189641,0.175953078,0.097751703,0.322580624,0.361681342,0.752688169,0.420332336,0.166177917,0.283479958,0.273704791,1.085044022,1.202346087,0.205278587,0.254154444,0.420332336
0.068426199,1.202346087,0.175953078,0.097751703,0.322580624,0.371456504,0.791788864,0.410557175,0.166177917,0.283479958,0.283479958,1.065493703,1.153470159,0.205278587,0.263929605,0.420332336
0.068426199,1.202346087,0.166177917,0.097751703,0.332355833,0.371456504,0.811339188,0.410557175,0.156402731,0.273704791,0.273704791,1.094819183,1.10459435,0.195503416,0.254154444,0.430107546
0.058651023,1.182795639,0.175953078,0.097751703,0.342130995,0.38123167,0.811339188,0.410557175,0.156402731,0.273704791,0.273704791,1.143694997,1.10459435,0.195503416,0.254154444,0.410557175
0.068426199,1.173020482,0.185728254,0.097751703,0.322580624,0.371456504,0.830889511,0.410557175,0.166177917,0.263929605,0.273704791,1.10459435,1.065493703,0.195503416,0.263929605,0.410557175
0.068426199,1.173020482,0.185728254,0.087976542,0.312805462,0.361681342,0.821114349,0.420332336,0.175953078,0.263929605,0.273704791,1.173020482,1.036168098,0.205278587,0.283479958,0.400782013
0.068426199,1.16324532,0.185728254,0.087976542,0.3030303,0.351906157,0.918866062,0.439882708,0.185728254,0.254154444,0.263929605,1.182795639,1.006842613,0.195503416,0.283479958,0.400782013
0.068426199,1.114369512,0.195503416,0.087976542,0.312805462,0.351906157,0.997067451,0.488758564,0.185728254,0.244379282,0.263929605,1.182795639,1.006842613,0.205278587,0.283479958,0.400782013
0.068426199,1.212121248,0.205278587,0.087976542,0.312805462,0.342130995,1.036168098,0.518084049,0.205278587,0.234604096,0.263929605,1.231671572,0.977517128,0.195503416,0.3030303,0.400782013
0.068426199,1.251221895,0.215053773,0.078201365,0.312805462,0.332355833,1.026392937,0.557184744,0.215053773,0.234604096,0.263929605,1.358748794,0.967741871,0.195503416,0.312805462,0.391006832
0.068426199,1.329423308,0.215053773,0.087976542,0.312805462,0.332355833,0.997067451,0.557184744,0.215053773,0.224828935,0.254154444,1.466275692,0.957966709,0.185728254,0.312805462,0.38123167
0.068426199,1.319648147,0.215053773,0.087976542,0.312805462,0.342130995,1.006842613,0.576735067,0.234604096,0.215053773,0.244379282,1.515151501,0.928641224,0.195503416,0.312805462,0.391006832
