0.234604096,0.547409582,0.527859211,0.234604096,0.127077222,0.127077222,0.518084049,0.14662756,0.097751703,0.097751703,0.166177917,0.097751703,0.195503416,0.205278587,0.263929605,0.566959906
1.28054738,1.290322542,1.036168098,0.948191547,2.082111359,2.482893467,3.000977516,2.67839694,1.739980459,1.788856268,1.876832867,1.779081106,0.224828935,0.205278587,0.263929605,0.713587475
1.759530783,1.329423308,1.036168098,1.006842613,2.140762568,2.541544437,3.059628487,2.776148558,1.779081106,1.83773222,1.935483837,1.818181896,0.224828935,0.205278587,0.254154444,0.703812313
1.984359741,1.28054738,0.997067451,0.977517128,2.03323555,2.424242496,2.893450737,2.629521132,1.69110465,1.739980459,1.83773222,1.710654974,0.224828935,0.215053773,0.254154444,0.733137846
2.062561035,1.231671572,0.957966709,0.938416386,1.915933514,2.277614832,2.756598234,2.473118305,1.603128052,1.642228699,1.739980459,1.642228699,0.224828935,0.224828935,0.254154444,0.733137846
2.082111359,1.16324532,0.928641224,0.899315739,1.79863143,2.160312891,2.629521132,2.336265802,1.524926662,1.573802567,1.642228699,1.544476986,0.224828935,0.215053773,0.254154444,0.752688169
2.072336197,1.124144673,0.899315739,0.869990253,1.700879812,2.03323555,2.492668629,2.2091887,1.436950111,1.495601177,1.573802567,1.466275692,0.224828935,0.224828935,0.273704791,0.742913008
2.003910065,1.065493703,0.860215092,0.830889511,1.59335289,1.925708675,2.365591288,2.09188652,1.358748794,1.42717495,1.495601177,1.388074284,0.215053773,0.234604096,0.283479958,0.733137846
1.915933514,1.016617775,0.830889511,0.791788864,1.505376339,1.827957058,2.258064508,1.974584579,1.290322542,1.368523955,1.42717495,1.319648147,0.215053773,0.224828935,0.293255119,0.703812313
1.818181896,0.977517128,0.801564026,0.772238493,1.417399788,1.739980459,2.150537729,1.857282543,1.22189641,1.290322542,1.368523955,1.251221895,0.215053773,0.224828935,0.3030303,0.713587475
1.730205297,0.928641224,0.782013655,0.742913008,1.33919847,1.642228699,2.043010712,1.759530783,1.16324532,1.22189641,1.300097704,1.173020482,0.205278587,0.224828935,0.293255119,0.68426199
1.642228699,0.899315739,0.762463331,0.713587475,1.260997057,1.573802567,1.945259094,1.661779022,1.10459435,1.16324532,1.241446733,1.114369512,0.205278587,0.215053773,0.293255119,0.694037151
1.564027309,0.860215092,0.733137846,0.674486828,1.192570925,1.495601177,1.867057705,1.564027309,1.055718422,1.10459435,1.173020482,1.055718422,0.215053773,0.215053773,0.293255119,0.68426199
1.476050854,0.821114349,0.713587475,0.654936409,1.124144673,1.417399788,1.788856268,1.476050854,1.006842613,1.04594326,1.133919835,1.006842613,0.224828935,0.215053773,0.293255119,0.68426199
1.407624626,0.772238493,0.694037151,0.625610924,1.065493703,1.33919847,1.720430136,1.397849445,0.967741871,0.997067451,1.085044022,0.967741871,0.224828935,0.215053773,0.283479958,0.664711666
1.33919847,0.742913008,0.694037151,0.6060606,1.006842613,1.260997057,1.65200386,1.329423308,0.928641224,0.948191547,1.026392937,0.938416386,0.234604096,0.205278587,0.273704791,0.635386086
1.28054738,0.713587475,0.674486828,0.586510229,0.957966709,1.202346087,1.564027309,1.251221895,0.899315739,0.889540577,0.98729229,0.889540577,0.234604096,0.205278587,0.263929605,0.615835762
1.22189641,0.68426199,0.654936409,0.566959906,0.9090909,1.133919835,1.495601177,1.182795639,0.860215092,0.85043993,0.928641224,0.85043993,0.234604096,0.215053773,0.263929605,0.615835762
1.153470159,0.654936409,0.654936409,0.53763442,0.860215092,1.075268865,1.446725368,1.114369512,0.811339188,0.801564026,0.899315739,0.801564026,0.244379282,0.215053773,0.254154444,0.625610924
1.094819183,0.625610924,0.635386086,0.508308887,0.811339188,1.016617775,1.378299117,1.055718422,0.782013655,0.772238493,0.860215092,0.772238493,0.254154444,0.215053773,0.254154444,0.674486828
1.04594326,0.6060606,0.625610924,0.488758564,0.762463331,0.957966709,1.329423308,0.997067451,0.742913008,0.733137846,0.830889511,0.752688169,0.263929605,0.224828935,0.254154444,0.694037151
0.98729229,0.586510229,0.6060606,0.478983355,0.723362684,0.918866062,1.270772219,0.948191547,0.713587475,0.694037151,0.801564026,0.713587475,0.263929605,0.215053773,0.254154444,0.694037151
0.938416386,0.557184744,0.596285439,0.459433031,0.68426199,0.869990253,1.231671572,0.889540577,0.68426199,0.664711666,0.772238493,0.68426199,0.263929605,0.215053773,0.263929605,0.703812313
0.9090909,0.53763442,0.586510229,0.439882708,0.654936409,0.830889511,1.192570925,0.840664673,0.654936409,0.645161247,0.762463331,0.654936409,0.283479958,0.205278587,0.254154444,0.762463331
0.879765415,0.508308887,0.576735067,0.430107546,0.615835762,0.782013655,1.133919835,0.801564026,0.635386086,0.625610924,0.733137846,0.625610924,0.293255119,0.205278587,0.244379282,0.869990253
0.869990253,0.488758564,0.557184744,0.420332336,0.586510229,0.742913008,1.114369512,0.762463331,0.6060606,0.596285439,0.703812313,0.596285439,0.3030303,0.195503416,0.244379282,0.889540577
0.860215092,0.469208193,0.53763442,0.400782013,0.557184744,0.703812313,1.094819183,0.723362684,0.586510229,0.566959906,0.664711666,0.566959906,0.3030303,0.195503416,0.244379282,0.938416386
0.860215092,0.439882708,0.508308887,0.38123167,0.527859211,0.674486828,1.085044022,0.703812313,0.557184744,0.547409582,0.635386086,0.53763442,0.312805462,0.195503416,0.234604096,0.957966709
0.860215092,0.420332336,0.498533726,0.371456504,0.498533726,0.635386086,1.055718422,0.664711666,0.527859211,0.527859211,0.625610924,0.518084049,0.312805462,0.195503416,0.234604096,0.928641224
0.860215092,0.400782013,0.498533726,0.361681342,0.469208193,0.6060606,1.016617775,0.625610924,0.518084049,0.508308887,0.6060606,0.498533726,0.3030303,0.195503416,0.234604096,0.889540577
0.830889511,0.400782013,0.488758564,0.342130995,0.459433031,0.566959906,0.967741871,0.596285439,0.488758564,0.488758564,0.586510229,0.488758564,0.312805462,0.195503416,0.234604096,0.869990253
0.801564026,0.38123167,0.469208193,0.342130995,0.430107546,0.547409582,0.918866062,0.576735067,0.469208193,0.478983355,0.576735067,0.459433031,0.322580624,0.195503416,0.224828935,0.860215092
0.762463331,0.38123167,0.469208193,0.332355833,0.410557175,0.518084049,0.860215092,0.557184744,0.459433031,0.459433031,0.547409582,0.449657869,0.322580624,0.205278587,0.224828935,0.811339188
0.733137846,0.371456504,0.459433031,0.312805462,0.391006832,0.498533726,0.85043993,0.527859211,0.439882708,0.439882708,0.53763442,0.430107546,0.332355833,0.205278587,0.224828935,0.801564026
0.703812313,0.361681342,0.459433031,0.3030303,0.371456504,0.469208193,0.821114349,0.498533726,0.410557175,0.420332336,0.518084049,0.420332336,0.322580624,0.215053773,0.224828935,0.801564026
0.674486828,0.351906157,0.449657869,0.293255119,0.351906157,0.449657869,0.782013655,0.469208193,0.400782013,0.410557175,0.518084049,0.420332336,0.322580624,0.205278587,0.244379282,0.782013655
0.645161247,0.342130995,0.439882708,0.273704791,0.332355833,0.439882708,0.762463331,0.449657869,0.391006832,0.400782013,0.518084049,0.400782013,0.342130995,0.215053773,0.244379282,0.752688169
0.615835762,0.322580624,0.420332336,0.273704791,0.322580624,0.420332336,0.733137846,0.430107546,0.391006832,0.38123167,0.498533726,0.400782013,0.342130995,0.215053773,0.254154444,0.742913008
0.596285439,0.312805462,0.400782013,0.254154444,0.3030303,0.400782013,0.713587475,0.400782013,0.391006832,0.38123167,0.469208193,0.391006832,0.332355833,0.205278587,0.254154444,0.733137846
0.566959906,0.293255119,0.400782013,0.254154444,0.293255119,0.391006832,0.68426199,0.391006832,0.371456504,0.361681342,0.449657869,0.400782013,0.342130995,0.195503416,0.263929605,0.713587475
0.566959906,0.283479958,0.400782013,0.254154444,0.273704791,0.38123167,0.654936409,0.371456504,0.371456504,0.351906157,0.439882708,0.391006832,0.342130995,0.185728254,0.263929605,0.694037151
0.566959906,0.273704791,0.391006832,0.244379282,0.263929605,0.361681342,0.625610924,0.361681342,0.351906157,0.361681342,0.439882708,0.38123167,0.332355833,0.195503416,0.273704791,0.664711666
0.557184744,0.254154444,0.38123167,0.234604096,0.254154444,0.342130995,0.6060606,0.342130995,0.351906157,0.342130995,0.430107546,0.371456504,0.342130995,0.195503416,0.263929605,0.654936409
0.557184744,0.244379282,0.391006832,0.224828935,0.244379282,0.322580624,0.586510229,0.332355833,0.342130995,0.332355833,0.420332336,0.371456504,0.361681342,0.205278587,0.254154444,0.654936409
0.557184744,0.234604096,0.400782013,0.215053773,0.234604096,0.312805462,0.566959906,0.322580624,0.342130995,0.312805462,0.420332336,0.361681342,0.361681342,0.205278587,0.273704791,0.645161247
0.557184744,0.224828935,0.410557175,0.205278587,0.224828935,0.3030303,0.53763442,0.3030303,0.342130995,0.312805462,0.410557175,0.371456504,0.391006832,0.195503416,0.283479958,0.635386086
0.557184744,0.215053773,0.391006832,0.195503416,0.215053773,0.293255119,0.527859211,0.293255119,0.332355833,0.312805462,0.391006832,0.391006832,0.391006832,0.195503416,0.283479958,0.654936409
0.576735067,0.205278587,0.38123167,0.195503416,0.205278587,0.273704791,0.498533726,0.283479958,0.312805462,0.3030303,0.371456504,0.391006832,0.38123167,0.195503416,0.293255119,0.674486828
0.576735067,0.195503416,0.371456504,0.175953078,0.195503416,0.263929605,0.478983355,0.273704791,0.312805462,0.293255119,0.361681342,0.38123167,0.410557175,0.195503416,0.293255119,0.703812313
0.557184744,0.195503416,0.361681342,0.166177917,0.185728254,0.254154444,0.469208193,0.273704791,0.312805462,0.283479958,0.351906157,0.371456504,0.410557175,0.205278587,0.283479958,0.752688169
0.527859211,0.185728254,0.361681342,0.156402731,0.185728254,0.244379282,0.449657869,0.263929605,0.3030303,0.283479958,0.332355833,0.361681342,0.420332336,0.205278587,0.283479958,0.762463331
0.508308887,0.175953078,0.371456504,0.156402731,0.175953078,0.244379282,0.439882708,0.254154444,0.293255119,0.263929605,0.322580624,0.351906157,0.420332336,0.205278587,0.273704791,0.772238493
0.488758564,0.166177917,0.371456504,0.14662756,0.166177917,0.244379282,0.420332336,0.234604096,0.283479958,0.254154444,0.3030303,0.332355833,0.410557175,0.205278587,0.273704791,0.733137846
0.478983355,0.166177917,0.391006832,0.14662756,0.166177917,0.224828935,0.410557175,0.234604096,0.273704791,0.254154444,0.3030303,0.332355833,0.439882708,0.224828935,0.263929605,0.723362684
0.459433031,0.156402731,0.410557175,0.136852396,0.156402731,0.224828935,0.38123167,0.224828935,0.263929605,0.244379282,0.3030303,0.342130995,0.449657869,0.254154444,0.273704791,0.713587475
0.439882708,0.14662756,0.410557175,0.136852396,0.156402731,0.215053773,0.371456504,0.215053773,0.273704791,0.244379282,0.3030303,0.332355833,0.459433031,0.254154444,0.273704791,0.68426199
0.420332336,0.14662756,0.430107546,0.127077222,0.14662756,0.205278587,0.351906157,0.205278587,0.273704791,0.234604096,0.3030303,0.332355833,0.469208193,0.254154444,0.283479958,0.68426199
0.410557175,0.136852396,0.449657869,0.127077222,0.14662756,0.195503416,0.332355833,0.195503416,0.263929605,0.224828935,0.293255119,0.332355833,0.527859211,0.254154444,0.283479958,0.68426199
0.391006832,0.136852396,0.439882708,0.127077222,0.136852396,0.195503416,0.322580624,0.195503416,0.254154444,0.215053773,0.3030303,0.332355833,0.527859211,0.244379282,0.263929605,0.694037151
0.371456504,0.127077222,0.449657869,0.127077222,0.127077222,0.185728254,0.312805462,0.195503416,0.254154444,0.215053773,0.3030303,0.332355833,0.53763442,0.244379282,0.254154444,0.664711666
0.361681342,0.127077222,0.439882708,0.127077222,0.127077222,0.175953078,0.3030303,0.185728254,0.263929605,0.215053773,0.293255119,0.322580624,0.518084049,0.234604096,0.244379282,0.664711666
0.361681342,0.127077222,0.439882708,0.127077222,0.127077222,0.166177917,0.293255119,0.175953078,0.254154444,0.224828935,0.293255119,0.322580624,0.508308887,0.244379282,0.244379282,0.664711666
0.361681342,0.117302048,0.430107546,0.117302048,0.117302048,0.166177917,0.283479958,0.195503416,0.254154444,0.215053773,0.283479958,0.322580624,0.488758564,0.244379282,0.244379282,0.703812313
0.361681342,0.117302048,0.430107546,0.117302048,0.117302048,0.166177917,0.273704791,0.185728254,0.254154444,0.205278587,0.273704791,0.322580624,0.527859211,0.254154444,0.254154444,0.694037151
0.361681342,0.107526886,0.430107546,0.117302048,0.117302048,0.156402731,0.273704791,0.185728254,0.244379282,0.205278587,0.273704791,0.322580624,0.527859211,0.254154444,0.244379282,0.723362684
0.351906157,0.107526886,0.439882708,0.107526886,0.117302048,0.156402731,0.263929605,0.175953078,0.244379282,0.205278587,0.263929605,0.312805462,0.518084049,0.254154444,0.263929605,0.713587475
0.342130995,0.107526886,0.459433031,0.107526886,0.107526886,0.14662756,0.254154444,0.175953078,0.244379282,0.205278587,0.254154444,0.3030303,0.527859211,0.244379282,0.244379282,0.723362684
0.332355833,0.097751703,0.469208193,0.097751703,0.107526886,0.14662756,0.244379282,0.166177917,0.254154444,0.205278587,0.254154444,0.322580624,0.527859211,0.244379282,0.254154444,0.694037151
0.332355833,0.107526886,0.478983355,0.097751703,0.107526886,0.136852396,0.244379282,0.175953078,0.234604096,0.205278587,0.254154444,0.332355833,0.518084049,0.254154444,0.273704791,0.703812313
0.332355833,0.097751703,0.498533726,0.097751703,0.107526886,0.127077222,0.234604096,0.185728254,0.234604096,0.205278587,0.254154444,0.351906157,0.498533726,0.273704791,0.263929605,0.713587475
0.322580624,0.097751703,0.498533726,0.097751703,0.097751703,0.127077222,0.224828935,0.175953078,0.234604096,0.195503416,0.244379282,0.361681342,0.547409582,0.283479958,0.263929605,0.733137846
0.3030303,0.097751703,0.498533726,0.097751703,0.097751703,0.127077222,0.215053773,0.175953078,0.224828935,0.195503416,0.234604096,0.361681342,0.547409582,0.293255119,0.254154444,0.762463331
0.293255119,0.097751703,0.498533726,0.097751703,0.097751703,0.127077222,0.215053773,0.175953078,0.234604096,0.205278587,0.244379282,0.361681342,0.547409582,0.283479958,0.244379282,0.742913008
0.283479958,0.097751703,0.518084049,0.097751703,0.097751703,0.117302048,0.205278587,0.166177917,0.244379282,0.195503416,0.234604096,0.351906157,0.596285439,0.283479958,0.244379282,0.733137846
0.283479958,0.107526886,0.518084049,0.097751703,0.097751703,0.117302048,0.205278587,0.156402731,0.234604096,0.195503416,0.234604096,0.351906157,0.645161247,0.283479958,0.234604096,0.752688169
0.273704791,0.097751703,0.508308887,0.097751703,0.097751703,0.107526886,0.205278587,0.156402731,0.234604096,0.195503416,0.234604096,0.342130995,0.694037151,0.273704791,0.234604096,0.772238493
0.283479958,0.097751703,0.518084049,0.097751703,0.097751703,0.107526886,0.205278587,0.156402731,0.224828935,0.185728254,0.254154444,0.351906157,0.703812313,0.283479958,0.234604096,0.821114349
0.273704791,0.097751703,0.518084049,0.087976542,0.097751703,0.107526886,0.205278587,0.166177917,0.234604096,0.185728254,0.254154444,0.351906157,0.674486828,0.283479958,0.234604096,0.830889511
0.273704791,0.107526886,0.518084049,0.087976542,0.097751703,0.107526886,0.195503416,0.166177917,0.224828935,0.185728254,0.254154444,0.342130995,0.664711666,0.3030303,0.224828935,0.830889511
0.263929605,0.097751703,0.518084049,0.087976542,0.087976542,0.097751703,0.215053773,0.166177917,0.234604096,0.185728254,0.263929605,0.342130995,0.694037151,0.312805462,0.224828935,0.830889511
0.254154444,0.107526886,0.518084049,0.087976542,0.087976542,0.097751703,0.215053773,0.166177917,0.244379282,0.175953078,0.273704791,0.342130995,0.68426199,0.312805462,0.224828935,0.801564026
0.244379282,0.107526886,0.508308887,0.087976542,0.087976542,0.097751703,0.205278587,0.156402731,0.234604096,0.175953078,0.254154444,0.342130995,0.664711666,0.322580624,0.215053773,0.801564026
0.244379282,0.107526886,0.478983355,0.087976542,0.087976542,0.097751703,0.195503416,0.156402731,0.234604096,0.185728254,0.254154444,0.342130995,0.68426199,0.322580624,0.205278587,0.762463331
0.244379282,0.107526886,0.469208193,0.087976542,0.087976542,0.097751703,0.205278587,0.156402731,0.224828935,0.195503416,0.254154444,0.342130995,0.694037151,0.322580624,0.205278587,0.752688169
0.244379282,0.107526886,0.459433031,0.078201365,0.087976542,0.097751703,0.195503416,0.14662756,0.234604096,0.195503416,0.254154444,0.322580624,0.723362684,0.332355833,0.195503416,0.742913008
0.254154444,0.107526886,0.469208193,0.087976542,0.087976542,0.107526886,0.205278587,0.136852396,0.234604096,0.195503416,0.244379282,0.312805462,0.703812313,0.332355833,0.195503416,0.762463331
0.254154444,0.097751703,0.469208193,0.087976542,0.087976542,0.097751703,0.215053773,0.136852396,0.234604096,0.185728254,0.244379282,0.322580624,0.674486828,0.332355833,0.205278587,0.752688169
0.263929605,0.107526886,0.449657869,0.097751703,0.087976542,0.107526886,0.215053773,0.127077222,0.254154444,0.195503416,0.234604096,0.322580624,0.645161247,0.342130995,0.234604096,0.762463331
0.293255119,0.097751703,0.469208193,0.087976542,0.087976542,0.097751703,0.205278587,0.136852396,0.254154444,0.195503416,0.234604096,0.322580624,0.645161247,0.332355833,0.234604096,0.752688169
0.332355833,0.107526886,0.469208193,0.087976542,0.078201365,0.107526886,0.215053773,0.136852396,0.244379282,0.195503416,0.234604096,0.332355833,0.635386086,0.332355833,0.244379282,0.752688169
0.342130995,0.097751703,0.459433031,0.087976542,0.078201365,0.107526886,0.215053773,0.127077222,0.254154444,0.195503416,0.263929605,0.361681342,0.615835762,0.332355833,0.254154444,0.723362684
0.361681342,0.097751703,0.459433031,0.087976542,0.078201365,0.107526886,0.215053773,0.136852396,0.244379282,0.195503416,0.263929605,0.38123167,0.615835762,0.332355833,0.244379282,0.723362684
0.351906157,0.097751703,0.449657869,0.087976542,0.078201365,0.107526886,0.215053773,0.117302048,0.244379282,0.195503416,0.263929605,0.400782013,0.625610924,0.312805462,0.254154444,0.694037151
0.342130995,0.087976542,0.459433031,0.087976542,0.078201365,0.107526886,0.205278587,0.117302048,0.244379282,0.185728254,0.263929605,0.391006832,0.625610924,0.3030303,0.254154444,0.68426199
0.332355833,0.087976542,0.449657869,0.087976542,0.078201365,0.107526886,0.205278587,0.117302048,0.234604096,0.195503416,0.263929605,0.38123167,0.68426199,0.322580624,0.244379282,0.703812313
0.322580624,0.087976542,0.430107546,0.087976542,0.078201365,0.097751703,0.215053773,0.117302048,0.234604096,0.195503416,0.273704791,0.391006832,0.694037151,0.332355833,0.244379282,0.694037151
0.312805462,0.087976542,0.430107546,0.087976542,0.078201365,0.097751703,0.215053773,0.117302048,0.234604096,0.205278587,0.283479958,0.38123167,0.703812313,0.332355833,0.254154444,0.674486828
0.312805462,0.087976542,0.430107546,0.078201365,0.078201365,0.097751703,0.215053773,0.127077222,0.244379282,0.195503416,0.273704791,0.391006832,0.68426199,0.332355833,0.254154444,0.664711666
0.332355833,0.097751703,0.449657869,0.078201365,0.068426199,0.107526886,0.234604096,0.127077222,0.273704791,0.195503416,0.263929605,0.38123167,0.664711666,0.322580624,0.244379282,0.645161247
0.361681342,0.107526886,0.449657869,0.078201365,0.078201365,0.097751703,0.224828935,0.127077222,0.254154444,0.195503416,0.263929605,0.38123167,0.664711666,0.322580624,0.273704791,0.635386086
0.38123167,0.107526886,0.430107546,0.078201365,0.068426199,0.097751703,0.224828935,0.117302048,0.254154444,0.205278587,0.263929605,0.38123167,0.674486828,0.322580624,0.283479958,0.635386086
0.420332336,0.117302048,0.430107546,0.087976542,0.078201365,0.097751703,0.224828935,0.127077222,0.254154444,0.205278587,0.254154444,0.38123167,0.674486828,0.322580624,0.293255119,0.635386086
0.439882708,0.107526886,0.420332336,0.078201365,0.078201365,0.097751703,0.224828935,0.136852396,0.254154444,0.205278587,0.254154444,0.410557175,0.694037151,0.322580624,0.293255119,0.664711666
0.469208193,0.097751703,0.420332336,0.078201365,0.068426199,0.087976542,0.215053773,0.127077222,0.254154444,0.205278587,0.254154444,0.391006832,0.703812313,0.332355833,0.283479958,0.654936409
0.498533726,0.097751703,0.410557175,0.078201365,0.078201365,0.087976542,0.215053773,0.127077222,0.263929605,0.205278587,0.244379282,0.391006832,0.68426199,0.322580624,0.273704791,0.654936409
0.518084049,0.097751703,0.410557175,0.078201365,0.068426199,0.097751703,0.215053773,0.127077222,0.263929605,0.205278587,0.254154444,0.38123167,0.654936409,0.342130995,0.273704791,0.645161247
0.527859211,0.097751703,0.400782013,0.068426199,0.068426199,0.087976542,0.205278587,0.117302048,0.254154444,0.195503416,0.244379282,0.391006832,0.635386086,0.351906157,0.254154444,0.615835762
0.53763442,0.097751703,0.410557175,0.078201365,0.068426199,0.087976542,0.205278587,0.117302048,0.263929605,0.215053773,0.244379282,0.391006832,0.625610924,0.361681342,0.254154444,0.596285439
0.53763442,0.097751703,0.400782013,0.078201365,0.068426199,0.087976542,0.215053773,0.117302048,0.263929605,0.205278587,0.244379282,0.410557175,0.625610924,0.371456504,0.244379282,0.586510229
0.527859211,0.087976542,0.400782013,0.078201365,0.068426199,0.087976542,0.215053773,0.117302048,0.254154444,0.205278587,0.244379282,0.430107546,0.6060606,0.400782013,0.244379282,0.576735067
0.518084049,0.087976542,0.410557175,0.078201365,0.068426199,0.087976542,0.224828935,0.117302048,0.254154444,0.195503416,0.234604096,0.420332336,0.596285439,0.391006832,0.254154444,0.576735067
0.508308887,0.087976542,0.400782013,0.078201365,0.068426199,0.087976542,0.224828935,0.117302048,0.254154444,0.195503416,0.234604096,0.449657869,0.596285439,0.38123167,0.244379282,0.557184744
0.488758564,0.087976542,0.400782013,0.087976542,0.068426199,0.087976542,0.215053773,0.117302048,0.244379282,0.205278587,0.224828935,0.449657869,0.625610924,0.38123167,0.244379282,0.547409582
0.469208193,0.097751703,0.400782013,0.078201365,0.068426199,0.078201365,0.215053773,0.117302048,0.254154444,0.195503416,0.224828935,0.498533726,0.654936409,0.400782013,0.244379282,0.566959906
0.449657869,0.097751703,0.400782013,0.078201365,0.068426199,0.087976542,0.215053773,0.107526886,0.244379282,0.205278587,0.215053773,0.478983355,0.664711666,0.400782013,0.254154444,0.547409582
0.430107546,0.097751703,0.38123167,0.078201365,0.068426199,0.087976542,0.205278587,0.117302048,0.254154444,0.205278587,0.215053773,0.469208193,0.68426199,0.410557175,0.263929605,0.53763442
0.420332336,0.097751703,0.371456504,0.087976542,0.068426199,0.087976542,0.205278587,0.117302048,0.254154444,0.205278587,0.215053773,0.488758564,0.654936409,0.400782013,0.263929605,0.53763442
0.400782013,0.097751703,0.351906157,0.087976542,0.068426199,0.078201365,0.205278587,0.117302048,0.254154444,0.195503416,0.224828935,0.498533726,0.645161247,0.400782013,0.273704791,0.518084049
0.400782013,0.097751703,0.351906157,0.097751703,0.068426199,0.087976542,0.205278587,0.117302048,0.254154444,0.195503416,0.224828935,0.478983355,0.635386086,0.391006832,0.273704791,0.498533726
0.391006832,0.097751703,0.342130995,0.097751703,0.058651023,0.087976542,0.205278587,0.117302048,0.263929605,0.195503416,0.224828935,0.469208193,0.664711666,0.449657869,0.263929605,0.478983355
0.391006832,0.107526886,0.332355833,0.097751703,0.058651023,0.097751703,0.205278587,0.117302048,0.273704791,0.205278587,0.224828935,0.498533726,0.733137846,0.469208193,0.263929605,0.469208193
0.400782013,0.097751703,0.322580624,0.107526886,0.058651023,0.087976542,0.195503416,0.127077222,0.263929605,0.205278587,0.224828935,0.498533726,0.713587475,0.527859211,0.263929605,0.459433031
0.410557175,0.107526886,0.312805462,0.107526886,0.058651023,0.087976542,0.195503416,0.136852396,0.283479958,0.205278587,0.224828935,0.498533726,0.733137846,0.547409582,0.254154444,0.449657869
0.449657869,0.097751703,0.3030303,0.107526886,0.058651023,0.087976542,0.195503416,0.136852396,0.293255119,0.195503416,0.224828935,0.498533726,0.733137846,0.547409582,0.244379282,0.439882708
0.508308887,0.097751703,0.293255119,0.127077222,0.058651023,0.087976542,0.195503416,0.136852396,0.283479958,0.195503416,0.234604096,0.498533726,0.703812313,0.557184744,0.244379282,0.439882708
0.566959906,0.097751703,0.283479958,0.127077222,0.058651023,0.087976542,0.185728254,0.127077222,0.293255119,0.195503416,0.224828935,0.498533726,0.694037151,0.566959906,0.244379282,0.439882708
0.615835762,0.097751703,0.273704791,0.127077222,0.058651023,0.087976542,0.185728254,0.127077222,0.3030303,0.205278587,0.224828935,0.498533726,0.703812313,0.566959906,0.234604096,0.439882708
0.625610924,0.087976542,0.263929605,0.127077222,0.058651023,0.087976542,0.185728254,0.127077222,0.293255119,0.195503416,0.224828935,0.547409582,0.694037151,0.557184744,0.234604096,0.439882708
0.654936409,0.087976542,0.263929605,0.127077222,0.058651023,0.087976542,0.195503416,0.14662756,0.293255119,0.205278587,0.215053773,0.557184744,0.664711666,0.53763442,0.234604096,0.420332336
0.674486828,0.087976542,0.254154444,0.117302048,0.058651023,0.097751703,0.205278587,0.14662756,0.3030303,0.195503416,0.215053773,0.566959906,0.694037151,0.586510229,0.244379282,0.400782013
0.68426199,0.087976542,0.234604096,0.117302048,0.058651023,0.107526886,0.205278587,0.136852396,0.332355833,0.195503416,0.215053773,0.557184744,0.68426199,0.557184744,0.234604096,0.410557175
0.68426199,0.087976542,0.234604096,0.127077222,0.058651023,0.097751703,0.224828935,0.136852396,0.342130995,0.185728254,0.224828935,0.527859211,0.674486828,0.596285439,0.234604096,0.400782013
0.664711666,0.087976542,0.224828935,0.117302048,0.058651023,0.097751703,0.224828935,0.127077222,0.332355833,0.185728254,0.234604096,0.508308887,0.654936409,0.576735067,0.234604096,0.391006832
0.625610924,0.087976542,0.215053773,0.117302048,0.058651023,0.097751703,0.224828935,0.127077222,0.322580624,0.185728254,0.224828935,0.498533726,0.635386086,0.596285439,0.234604096,0.38123167
0.596285439,0.087976542,0.215053773,0.107526886,0.058651023,0.087976542,0.224828935,0.127077222,0.322580624,0.185728254,0.224828935,0.488758564,0.625610924,0.586510229,0.224828935,0.38123167
0.566959906,0.087976542,0.215053773,0.107526886,0.068426199,0.097751703,0.224828935,0.127077222,0.332355833,0.175953078,0.215053773,0.488758564,0.674486828,0.6060606,0.224828935,0.38123167
0.53763442,0.087976542,0.205278587,0.107526886,0.058651023,0.097751703,0.215053773,0.117302048,0.351906157,0.175953078,0.244379282,0.488758564,0.674486828,0.6060606,0.224828935,0.371456504
0.518084049,0.087976542,0.205278587,0.107526886,0.068426199,0.097751703,0.205278587,0.117302048,0.342130995,0.175953078,0.244379282,0.488758564,0.664711666,0.615835762,0.215053773,0.361681342
0.508308887,0.087976542,0.195503416,0.097751703,0.058651023,0.087976542,0.205278587,0.117302048,0.332355833,0.175953078,0.244379282,0.478983355,0.654936409,0.615835762,0.215053773,0.342130995
0.488758564,0.087976542,0.195503416,0.097751703,0.068426199,0.097751703,0.195503416,0.127077222,0.371456504,0.185728254,0.234604096,0.469208193,0.645161247,0.625610924,0.215053773,0.342130995
0.469208193,0.087976542,0.185728254,0.097751703,0.068426199,0.107526886,0.185728254,0.117302048,0.38123167,0.175953078,0.244379282,0.508308887,0.654936409,0.615835762,0.224828935,0.332355833
0.449657869,0.087976542,0.185728254,0.097751703,0.068426199,0.107526886,0.185728254,0.117302048,0.38123167,0.175953078,0.234604096,0.508308887,0.674486828,0.596285439,0.224828935,0.332355833
0.430107546,0.087976542,0.175953078,0.097751703,0.078201365,0.097751703,0.175953078,0.117302048,0.38123167,0.175953078,0.234604096,0.518084049,0.68426199,0.586510229,0.224828935,0.322580624
0.410557175,0.087976542,0.166177917,0.097751703,0.068426199,0.107526886,0.166177917,0.127077222,0.391006832,0.175953078,0.224828935,0.53763442,0.713587475,0.557184744,0.215053773,0.312805462
0.391006832,0.078201365,0.166177917,0.097751703,0.068426199,0.097751703,0.166177917,0.117302048,0.38123167,0.166177917,0.234604096,0.527859211,0.694037151,0.53763442,0.215053773,0.3030303
0.371456504,0.078201365,0.166177917,0.097751703,0.068426199,0.107526886,0.166177917,0.117302048,0.371456504,0.166177917,0.234604096,0.53763442,0.694037151,0.53763442,0.215053773,0.3030303
0.351906157,0.087976542,0.156402731,0.087976542,0.068426199,0.097751703,0.175953078,0.117302048,0.361681342,0.185728254,0.224828935,0.576735067,0.664711666,0.53763442,0.205278587,0.293255119
0.342130995,0.078201365,0.156402731,0.087976542,0.068426199,0.107526886,0.175953078,0.117302048,0.351906157,0.195503416,0.244379282,0.596285439,0.645161247,0.576735067,0.205278587,0.293255119
0.332355833,0.078201365,0.156402731,0.087976542,0.078201365,0.107526886,0.195503416,0.117302048,0.342130995,0.195503416,0.234604096,0.576735067,0.635386086,0.576735067,0.205278587,0.293255119
0.312805462,0.078201365,0.14662756,0.078201365,0.078201365,0.097751703,0.195503416,0.117302048,0.332355833,0.195503416,0.234604096,0.6060606,0.664711666,0.576735067,0.215053773,0.293255119
0.312805462,0.078201365,0.14662756,0.087976542,0.078201365,0.107526886,0.185728254,0.107526886,0.342130995,0.185728254,0.224828935,0.6060606,0.654936409,0.566959906,0.215053773,0.283479958
0.293255119,0.078201365,0.136852396,0.087976542,0.078201365,0.097751703,0.185728254,0.107526886,0.322580624,0.185728254,0.224828935,0.615835762,0.625610924,0.566959906,0.205278587,0.283479958
0.273704791,0.078201365,0.136852396,0.087976542,0.078201365,0.097751703,0.166177917,0.097751703,0.332355833,0.185728254,0.224828935,0.635386086,0.635386086,0.566959906,0.215053773,0.273704791
0.263929605,0.087976542,0.136852396,0.087976542,0.078201365,0.097751703,0.166177917,0.097751703,0.332355833,0.185728254,0.224828935,0.664711666,0.645161247,0.576735067,0.234604096,0.283479958
0.244379282,0.078201365,0.127077222,0.087976542,0.068426199,0.097751703,0.156402731,0.097751703,0.312805462,0.185728254,0.224828935,0.645161247,0.674486828,0.576735067,0.234604096,0.293255119
0.244379282,0.078201365,0.127077222,0.087976542,0.078201365,0.097751703,0.156402731,0.097751703,0.312805462,0.195503416,0.224828935,0.625610924,0.68426199,0.596285439,0.234604096,0.312805462
0.224828935,0.078201365,0.117302048,0.097751703,0.068426199,0.097751703,0.156402731,0.097751703,0.3030303,0.195503416,0.215053773,0.694037151,0.674486828,0.586510229,0.234604096,0.312805462
0.224828935,0.078201365,0.127077222,0.107526886,0.068426199,0.097751703,0.14662756,0.097751703,0.3030303,0.205278587,0.215053773,0.703812313,0.664711666,0.586510229,0.215053773,0.312805462
0.215053773,0.078201365,0.117302048,0.097751703,0.068426199,0.097751703,0.14662756,0.097751703,0.283479958,0.205278587,0.195503416,0.762463331,0.694037151,0.566959906,0.224828935,0.312805462
0.205278587,0.078201365,0.117302048,0.087976542,0.068426199,0.087976542,0.136852396,0.097751703,0.273704791,0.215053773,0.195503416,0.733137846,0.674486828,0.557184744,0.215053773,0.312805462
0.195503416,0.078201365,0.117302048,0.087976542,0.068426199,0.097751703,0.136852396,0.097751703,0.273704791,0.205278587,0.195503416,0.703812313,0.664711666,0.557184744,0.215053773,0.3030303
0.185728254,0.078201365,0.127077222,0.087976542,0.078201365,0.097751703,0.136852396,0.087976542,0.263929605,0.195503416,0.205278587,0.694037151,0.664711666,0.557184744,0.224828935,0.322580624
0.175953078,0.078201365,0.127077222,0.087976542,0.078201365,0.087976542,0.136852396,0.087976542,0.273704791,0.195503416,0.205278587,0.694037151,0.635386086,0.566959906,0.215053773,0.312805462
0.166177917,0.078201365,0.117302048,0.087976542,0.068426199,0.097751703,0.136852396,0.087976542,0.273704791,0.205278587,0.205278587,0.68426199,0.625610924,0.6060606,0.215053773,0.322580624
0.166177917,0.078201365,0.117302048,0.087976542,0.068426199,0.087976542,0.127077222,0.087976542,0.273704791,0.205278587,0.195503416,0.645161247,0.6060606,0.635386086,0.205278587,0.342130995
0.156402731,0.087976542,0.117302048,0.087976542,0.078201365,0.087976542,0.127077222,0.087976542,0.283479958,0.195503416,0.195503416,0.635386086,0.586510229,0.625610924,0.215053773,0.332355833
0.156402731,0.078201365,0.117302048,0.087976542,0.078201365,0.097751703,0.127077222,0.087976542,0.283479958,0.195503416,0.195503416,0.6060606,0.596285439,0.635386086,0.215053773,0.351906157
0.14662756,0.078201365,0.117302048,0.097751703,0.078201365,0.097751703,0.117302048,0.087976542,0.293255119,0.185728254,0.205278587,0.596285439,0.596285439,0.635386086,0.215053773,0.351906157
0.136852396,0.078201365,0.127077222,0.097751703,0.078201365,0.097751703,0.117302048,0.087976542,0.293255119,0.195503416,0.195503416,0.6060606,0.6060606,0.664711666,0.215053773,0.38123167
0.136852396,0.078201365,0.127077222,0.097751703,0.078201365,0.097751703,0.117302048,0.078201365,0.283479958,0.195503416,0.185728254,0.6060606,0.586510229,0.664711666,0.215053773,0.400782013
0.127077222,0.078201365,0.127077222,0.097751703,0.078201365,0.097751703,0.117302048,0.078201365,0.283479958,0.195503416,0.195503416,0.625610924,0.576735067,0.694037151,0.215053773,0.400782013
0.117302048,0.078201365,0.117302048,0.087976542,0.078201365,0.097751703,0.117302048,0.078201365,0.273704791,0.195503416,0.205278587,0.625610924,0.547409582,0.674486828,0.215053773,0.410557175
0.117302048,0.078201365,0.117302048,0.087976542,0.078201365,0.097751703,0.127077222,0.078201365,0.273704791,0.185728254,0.205278587,0.615835762,0.557184744,0.645161247,0.195503416,0.420332336
0.107526886,0.078201365,0.107526886,0.097751703,0.078201365,0.087976542,0.127077222,0.078201365,0.263929605,0.185728254,0.185728254,0.6060606,0.557184744,0.664711666,0.195503416,0.420332336
0.107526886,0.078201365,0.107526886,0.097751703,0.078201365,0.087976542,0.136852396,0.068426199,0.254154444,0.185728254,0.185728254,0.635386086,0.547409582,0.674486828,0.195503416,0.478983355
0.107526886,0.078201365,0.107526886,0.107526886,0.087976542,0.078201365,0.136852396,0.068426199,0.244379282,0.185728254,0.205278587,0.713587475,0.557184744,0.674486828,0.205278587,0.488758564
0.107526886,0.078201365,0.097751703,0.107526886,0.078201365,0.087976542,0.136852396,0.068426199,0.244379282,0.185728254,0.205278587,0.742913008,0.576735067,0.703812313,0.195503416,0.518084049
0.107526886,0.078201365,0.097751703,0.097751703,0.078201365,0.087976542,0.127077222,0.068426199,0.244379282,0.185728254,0.205278587,0.742913008,0.576735067,0.703812313,0.195503416,0.518084049
0.107526886,0.078201365,0.097751703,0.097751703,0.078201365,0.087976542,0.127077222,0.068426199,0.244379282,0.185728254,0.215053773,0.742913008,0.557184744,0.703812313,0.205278587,0.53763442
0.107526886,0.078201365,0.087976542,0.097751703,0.078201365,0.078201365,0.127077222,0.068426199,0.234604096,0.175953078,0.215053773,0.752688169,0.586510229,0.703812313,0.215053773,0.53763442
0.107526886,0.078201365,0.087976542,0.107526886,0.078201365,0.087976542,0.127077222,0.068426199,0.234604096,0.175953078,0.215053773,0.762463331,0.596285439,0.694037151,0.215053773,0.547409582
0.107526886,0.078201365,0.097751703,0.107526886,0.068426199,0.087976542,0.127077222,0.068426199,0.234604096,0.166177917,0.215053773,0.762463331,0.625610924,0.68426199,0.224828935,0.547409582
0.107526886,0.068426199,0.087976542,0.097751703,0.068426199,0.078201365,0.127077222,0.068426199,0.244379282,0.166177917,0.215053773,0.782013655,0.615835762,0.674486828,0.224828935,0.547409582
0.107526886,0.068426199,0.087976542,0.097751703,0.068426199,0.087976542,0.127077222,0.068426199,0.244379282,0.166177917,0.224828935,0.821114349,0.615835762,0.674486828,0.224828935,0.527859211
0.097751703,0.068426199,0.087976542,0.097751703,0.068426199,0.078201365,0.127077222,0.058651023,0.234604096,0.175953078,0.215053773,0.840664673,0.625610924,0.68426199,0.215053773,0.518084049
0.097751703,0.068426199,0.087976542,0.097751703,0.068426199,0.078201365,0.136852396,0.058651023,0.234604096,0.175953078,0.215053773,0.811339188,0.625610924,0.674486828,0.224828935,0.508308887
0.087976542,0.068426199,0.087976542,0.107526886,0.068426199,0.078201365,0.136852396,0.058651023,0.234604096,0.185728254,0.215053773,0.801564026,0.615835762,0.68426199,0.244379282,0.508308887
0.087976542,0.068426199,0.097751703,0.107526886,0.068426199,0.078201365,0.136852396,0.058651023,0.224828935,0.185728254,0.215053773,0.811339188,0.6060606,0.694037151,0.254154444,0.527859211
0.087976542,0.068426199,0.087976542,0.107526886,0.068426199,0.078201365,0.136852396,0.058651023,0.224828935,0.185728254,0.215053773,0.801564026,0.625610924,0.703812313,0.273704791,0.53763442
0.097751703,0.068426199,0.087976542,0.107526886,0.058651023,0.078201365,0.136852396,0.058651023,0.234604096,0.185728254,0.234604096,0.772238493,0.645161247,0.752688169,0.263929605,0.547409582
0.087976542,0.058651023,0.087976542,0.107526886,0.068426199,0.078201365,0.127077222,0.058651023,0.234604096,0.185728254,0.224828935,0.752688169,0.645161247,0.772238493,0.273704791,0.547409582
0.097751703,0.068426199,0.078201365,0.107526886,0.068426199,0.078201365,0.127077222,0.058651023,0.234604096,0.185728254,0.215053773,0.742913008,0.635386086,0.782013655,0.273704791,0.53763442
0.097751703,0.068426199,0.078201365,0.117302048,0.068426199,0.078201365,0.117302048,0.058651023,0.234604096,0.175953078,0.224828935,0.713587475,0.625610924,0.791788864,0.273704791,0.527859211
0.097751703,0.068426199,0.087976542,0.117302048,0.068426199,0.068426199,0.127077222,0.048875852,0.244379282,0.175953078,0.224828935,0.723362684,0.635386086,0.791788864,0.273704791,0.518084049
0.097751703,0.058651023,0.097751703,0.117302048,0.068426199,0.068426199,0.127077222,0.048875852,0.244379282,0.175953078,0.234604096,0.723362684,0.615835762,0.791788864,0.263929605,0.527859211
0.097751703,0.058651023,0.107526886,0.107526886,0.068426199,0.078201365,0.136852396,0.058651023,0.254154444,0.175953078,0.224828935,0.752688169,0.586510229,0.782013655,0.263929605,0.508308887
0.087976542,0.068426199,0.117302048,0.107526886,0.058651023,0.068426199,0.14662756,0.048875852,0.254154444,0.166177917,0.215053773,0.733137846,0.586510229,0.840664673,0.263929605,0.498533726
0.087976542,0.058651023,0.136852396,0.097751703,0.068426199,0.068426199,0.156402731,0.048875852,0.254154444,0.175953078,0.205278587,0.713587475,0.576735067,0.830889511,0.263929605,0.488758564
0.087976542,0.058651023,0.14662756,0.097751703,0.058651023,0.078201365,0.166177917,0.048875852,0.254154444,0.166177917,0.205278587,0.703812313,0.566959906,0.869990253,0.254154444,0.469208193
0.087976542,0.058651023,0.156402731,0.097751703,0.058651023,0.078201365,0.166177917,0.048875852,0.254154444,0.166177917,0.205278587,0.68426199,0.557184744,0.85043993,0.244379282,0.459433031
0.097751703,0.058651023,0.175953078,0.097751703,0.058651023,0.078201365,0.156402731,0.048875852,0.244379282,0.175953078,0.195503416,0.664711666,0.576735067,0.811339188,0.244379282,0.478983355
0.087976542,0.058651023,0.185728254,0.087976542,0.058651023,0.068426199,0.166177917,0.048875852,0.254154444,0.175953078,0.205278587,0.654936409,0.635386086,0.811339188,0.254154444,0.469208193
0.097751703,0.058651023,0.195503416,0.087976542,0.058651023,0.068426199,0.156402731,0.058651023,0.254154444,0.166177917,0.195503416,0.635386086,0.635386086,0.830889511,0.254154444,0.469208193
0.097751703,0.058651023,0.215053773,0.087976542,0.058651023,0.068426199,0.156402731,0.048875852,0.254154444,0.166177917,0.205278587,0.635386086,0.615835762,0.821114349,0.254154444,0.488758564
0.097751703,0.058651023,0.234604096,0.078201365,0.048875852,0.078201365,0.14662756,0.048875852,0.273704791,0.166177917,0.195503416,0.645161247,0.596285439,0.85043993,0.244379282,0.478983355
0.107526886,0.058651023,0.244379282,0.078201365,0.048875852,0.078201365,0.156402731,0.048875852,0.283479958,0.166177917,0.205278587,0.635386086,0.586510229,0.860215092,0.244379282,0.459433031
0.107526886,0.058651023,0.254154444,0.087976542,0.058651023,0.068426199,0.156402731,0.048875852,0.283479958,0.166177917,0.205278587,0.615835762,0.596285439,0.889540577,0.244379282,0.469208193
0.107526886,0.058651023,0.254154444,0.087976542,0.048875852,0.068426199,0.166177917,0.048875852,0.293255119,0.166177917,0.205278587,0.596285439,0.576735067,0.889540577,0.234604096,0.469208193
0.117302048,0.058651023,0.263929605,0.078201365,0.048875852,0.068426199,0.175953078,0.048875852,0.283479958,0.166177917,0.205278587,0.586510229,0.557184744,0.879765415,0.234604096,0.439882708
0.117302048,0.058651023,0.263929605,0.087976542,0.048875852,0.068426199,0.185728254,0.068426199,0.3030303,0.166177917,0.205278587,0.596285439,0.547409582,0.879765415,0.224828935,0.439882708
0.117302048,0.058651023,0.254154444,0.078201365,0.048875852,0.078201365,0.175953078,0.078201365,0.293255119,0.156402731,0.215053773,0.625610924,0.527859211,0.879765415,0.234604096,0.449657869
0.117302048,0.058651023,0.244379282,0.078201365,0.058651023,0.068426199,0.166177917,0.068426199,0.312805462,0.156402731,0.224828935,0.654936409,0.53763442,0.869990253,0.224828935,0.439882708
0.117302048,0.058651023,0.254154444,0.078201365,0.058651023,0.068426199,0.166177917,0.068426199,0.332355833,0.156402731,0.215053773,0.68426199,0.53763442,0.860215092,0.224828935,0.430107546
0.117302048,0.058651023,0.254154444,0.078201365,0.058651023,0.068426199,0.156402731,0.068426199,0.342130995,0.156402731,0.215053773,0.664711666,0.518084049,0.821114349,0.215053773,0.430107546
0.117302048,0.048875852,0.244379282,0.078201365,0.058651023,0.087976542,0.166177917,0.068426199,0.332355833,0.14662756,0.224828935,0.674486828,0.508308887,0.85043993,0.215053773,0.420332336
0.117302048,0.048875852,0.244379282,0.078201365,0.058651023,0.087976542,0.156402731,0.068426199,0.361681342,0.156402731,0.244379282,0.68426199,0.498533726,0.869990253,0.215053773,0.420332336
0.107526886,0.048875852,0.244379282,0.078201365,0.058651023,0.087976542,0.156402731,0.058651023,0.391006832,0.166177917,0.244379282,0.664711666,0.478983355,0.840664673,0.224828935,0.430107546
0.107526886,0.058651023,0.234604096,0.078201365,0.058651023,0.078201365,0.14662756,0.058651023,0.38123167,0.175953078,0.254154444,0.654936409,0.449657869,0.821114349,0.234604096,0.420332336
0.107526886,0.058651023,0.234604096,0.078201365,0.058651023,0.078201365,0.14662756,0.068426199,0.371456504,0.175953078,0.254154444,0.635386086,0.439882708,0.801564026,0.234604096,0.420332336
0.107526886,0.058651023,0.224828935,0.078201365,0.058651023,0.078201365,0.14662756,0.068426199,0.371456504,0.175953078,0.254154444,0.635386086,0.420332336,0.801564026,0.254154444,0.420332336
0.097751703,0.058651023,0.244379282,0.078201365,0.068426199,0.078201365,0.156402731,0.078201365,0.391006832,0.175953078,0.254154444,0.615835762,0.410557175,0.801564026,0.244379282,0.410557175
0.107526886,0.058651023,0.234604096,0.068426199,0.058651023,0.078201365,0.156402731,0.078201365,0.371456504,0.185728254,0.234604096,0.645161247,0.391006832,0.772238493,0.244379282,0.400782013
0.097751703,0.058651023,0.224828935,0.078201365,0.058651023,0.068426199,0.156402731,0.078201365,0.361681342,0.185728254,0.234604096,0.625610924,0.38123167,0.752688169,0.234604096,0.410557175
0.097751703,0.058651023,0.224828935,0.068426199,0.058651023,0.068426199,0.14662756,0.078201365,0.342130995,0.195503416,0.234604096,0.6060606,0.371456504,0.791788864,0.234604096,0.400782013
0.097751703,0.058651023,0.215053773,0.068426199,0.058651023,0.068426199,0.14662756,0.078201365,0.342130995,0.195503416,0.234604096,0.625610924,0.361681342,0.801564026,0.234604096,0.391006832
0.097751703,0.058651023,0.205278587,0.068426199,0.058651023,0.078201365,0.14662756,0.078201365,0.342130995,0.195503416,0.254154444,0.625610924,0.342130995,0.801564026,0.234604096,0.391006832
0.097751703,0.058651023,0.215053773,0.068426199,0.058651023,0.078201365,0.156402731,0.087976542,0.342130995,0.195503416,0.234604096,0.615835762,0.332355833,0.762463331,0.234604096,0.38123167
0.097751703,0.058651023,0.205278587,0.068426199,0.068426199,0.078201365,0.156402731,0.097751703,0.361681342,0.205278587,0.234604096,0.625610924,0.312805462,0.742913008,0.234604096,0.38123167
0.097751703,0.048875852,0.205278587,0.078201365,0.058651023,0.078201365,0.14662756,0.087976542,0.342130995,0.234604096,0.234604096,0.635386086,0.3030303,0.811339188,0.234604096,0.371456504
0.097751703,0.048875852,0.195503416,0.078201365,0.068426199,0.068426199,0.14662756,0.097751703,0.361681342,0.234604096,0.224828935,0.674486828,0.293255119,0.821114349,0.224828935,0.351906157
0.087976542,0.058651023,0.185728254,0.078201365,0.058651023,0.068426199,0.136852396,0.087976542,0.371456504,0.224828935,0.224828935,0.664711666,0.3030303,0.791788864,0.215053773,0.342130995
0.087976542,0.048875852,0.185728254,0.078201365,0.068426199,0.078201365,0.136852396,0.107526886,0.361681342,0.234604096,0.234604096,0.694037151,0.293255119,0.791788864,0.205278587,0.351906157
0.097751703,0.048875852,0.175953078,0.068426199,0.058651023,0.087976542,0.136852396,0.117302048,0.361681342,0.234604096,0.224828935,0.694037151,0.293255119,0.762463331,0.205278587,0.342130995
0.087976542,0.058651023,0.175953078,0.068426199,0.068426199,0.087976542,0.136852396,0.136852396,0.361681342,0.224828935,0.224828935,0.723362684,0.283479958,0.752688169,0.205278587,0.342130995
0.087976542,0.058651023,0.166177917,0.068426199,0.068426199,0.087976542,0.136852396,0.156402731,0.351906157,0.224828935,0.224828935,0.723362684,0.273704791,0.752688169,0.205278587,0.351906157
0.087976542,0.058651023,0.156402731,0.068426199,0.068426199,0.087976542,0.136852396,0.166177917,0.342130995,0.215053773,0.215053773,0.703812313,0.273704791,0.742913008,0.205278587,0.361681342
0.078201365,0.058651023,0.156402731,0.068426199,0.068426199,0.087976542,0.136852396,0.215053773,0.332355833,0.215053773,0.215053773,0.68426199,0.263929605,0.703812313,0.195503416,0.342130995
0.078201365,0.058651023,0.156402731,0.058651023,0.068426199,0.087976542,0.14662756,0.234604096,0.332355833,0.224828935,0.224828935,0.694037151,0.254154444,0.703812313,0.205278587,0.342130995
0.078201365,0.048875852,0.14662756,0.058651023,0.058651023,0.087976542,0.136852396,0.234604096,0.332355833,0.215053773,0.224828935,0.703812313,0.244379282,0.694037151,0.205278587,0.332355833
0.078201365,0.048875852,0.14662756,0.058651023,0.068426199,0.087976542,0.136852396,0.254154444,0.332355833,0.215053773,0.215053773,0.733137846,0.234604096,0.68426199,0.195503416,0.351906157
0.078201365,0.048875852,0.14662756,0.058651023,0.078201365,0.078201365,0.136852396,0.254154444,0.342130995,0.205278587,0.215053773,0.713587475,0.234604096,0.694037151,0.195503416,0.361681342
0.078201365,0.048875852,0.136852396,0.058651023,0.078201365,0.078201365,0.127077222,0.244379282,0.342130995,0.205278587,0.215053773,0.723362684,0.234604096,0.68426199,0.205278587,0.351906157
0.078201365,0.048875852,0.136852396,0.068426199,0.068426199,0.087976542,0.127077222,0.244379282,0.332355833,0.195503416,0.215053773,0.772238493,0.234604096,0.674486828,0.215053773,0.361681342
0.078201365,0.058651023,0.136852396,0.068426199,0.068426199,0.087976542,0.127077222,0.234604096,0.332355833,0.195503416,0.234604096,0.772238493,0.215053773,0.68426199,0.215053773,0.371456504
0.078201365,0.048875852,0.136852396,0.068426199,0.068426199,0.078201365,0.127077222,0.234604096,0.342130995,0.195503416,0.215053773,0.742913008,0.224828935,0.664711666,0.215053773,0.361681342
0.078201365,0.048875852,0.127077222,0.058651023,0.058651023,0.087976542,0.136852396,0.224828935,0.342130995,0.195503416,0.215053773,0.742913008,0.224828935,0.654936409,0.215053773,0.351906157
0.078201365,0.048875852,0.127077222,0.068426199,0.068426199,0.078201365,0.136852396,0.234604096,0.361681342,0.195503416,0.205278587,0.762463331,0.215053773,0.625610924,0.215053773,0.342130995
0.078201365,0.048875852,0.127077222,0.068426199,0.068426199,0.078201365,0.127077222,0.234604096,0.391006832,0.195503416,0.205278587,0.742913008,0.215053773,0.664711666,0.205278587,0.332355833
0.068426199,0.048875852,0.117302048,0.078201365,0.068426199,0.078201365,0.127077222,0.234604096,0.400782013,0.195503416,0.195503416,0.723362684,0.215053773,0.68426199,0.205278587,0.322580624
0.068426199,0.048875852,0.117302048,0.068426199,0.068426199,0.078201365,0.127077222,0.234604096,0.391006832,0.195503416,0.205278587,0.703812313,0.205278587,0.694037151,0.195503416,0.322580624
0.068426199,0.058651023,0.117302048,0.068426199,0.058651023,0.087976542,0.127077222,0.234604096,0.38123167,0.205278587,0.205278587,0.742913008,0.205278587,0.68426199,0.195503416,0.322580624
0.068426199,0.048875852,0.117302048,0.068426199,0.068426199,0.087976542,0.127077222,0.234604096,0.38123167,0.215053773,0.195503416,0.752688169,0.195503416,0.674486828,0.205278587,0.322580624
0.068426199,0.048875852,0.117302048,0.068426199,0.068426199,0.087976542,0.127077222,0.224828935,0.38123167,0.215053773,0.185728254,0.762463331,0.195503416,0.674486828,0.205278587,0.322580624
0.068426199,0.048875852,0.117302048,0.068426199,0.078201365,0.078201365,0.127077222,0.234604096,0.391006832,0.215053773,0.195503416,0.762463331,0.195503416,0.68426199,0.205278587,0.322580624
0.068426199,0.058651023,0.117302048,0.078201365,0.078201365,0.087976542,0.127077222,0.244379282,0.391006832,0.215053773,0.195503416,0.742913008,0.195503416,0.664711666,0.205278587,0.312805462
0.068426199,0.048875852,0.117302048,0.068426199,0.087976542,0.097751703,0.117302048,0.254154444,0.371456504,0.215053773,0.185728254,0.752688169,0.195503416,0.674486828,0.205278587,0.3030303
0.068426199,0.048875852,0.127077222,0.068426199,0.087976542,0.097751703,0.117302048,0.244379282,0.371456504,0.215053773,0.185728254,0.772238493,0.195503416,0.713587475,0.205278587,0.293255119
0.068426199,0.048875852,0.127077222,0.068426199,0.087976542,0.087976542,0.127077222,0.234604096,0.361681342,0.215053773,0.185728254,0.762463331,0.185728254,0.723362684,0.215053773,0.293255119
0.068426199,0.048875852,0.117302048,0.068426199,0.097751703,0.097751703,0.127077222,0.234604096,0.391006832,0.224828935,0.185728254,0.733137846,0.205278587,0.713587475,0.234604096,0.283479958
0.068426199,0.048875852,0.117302048,0.068426199,0.087976542,0.097751703,0.127077222,0.224828935,0.391006832,0.215053773,0.185728254,0.703812313,0.195503416,0.713587475,0.244379282,0.283479958
0.068426199,0.048875852,0.117302048,0.068426199,0.087976542,0.097751703,0.127077222,0.215053773,0.391006832,0.215053773,0.185728254,0.674486828,0.185728254,0.703812313,0.234604096,0.283479958
0.068426199,0.048875852,0.127077222,0.068426199,0.087976542,0.097751703,0.117302048,0.205278587,0.38123167,0.215053773,0.185728254,0.654936409,0.205278587,0.694037151,0.234604096,0.293255119
0.068426199,0.048875852,0.127077222,0.068426199,0.087976542,0.097751703,0.117302048,0.224828935,0.391006832,0.215053773,0.205278587,0.625610924,0.205278587,0.674486828,0.234604096,0.293255119
0.078201365,0.058651023,0.127077222,0.068426199,0.097751703,0.087976542,0.127077222,0.234604096,0.38123167,0.215053773,0.215053773,0.625610924,0.205278587,0.664711666,0.254154444,0.283479958
0.078201365,0.048875852,0.127077222,0.068426199,0.087976542,0.087976542,0.127077222,0.244379282,0.400782013,0.215053773,0.244379282,0.635386086,0.215053773,0.664711666,0.234604096,0.283479958
0.078201365,0.048875852,0.136852396,0.068426199,0.087976542,0.097751703,0.127077222,0.263929605,0.391006832,0.215053773,0.244379282,0.625610924,0.215053773,0.645161247,0.234604096,0.273704791
0.078201365,0.058651023,0.136852396,0.068426199,0.087976542,0.097751703,0.127077222,0.263929605,0.391006832,0.234604096,0.254154444,0.596285439,0.215053773,0.615835762,0.244379282,0.293255119
0.078201365,0.058651023,0.136852396,0.068426199,0.087976542,0.097751703,0.127077222,0.312805462,0.38123167,0.244379282,0.244379282,0.576735067,0.215053773,0.596285439,0.244379282,0.293255119
0.078201365,0.048875852,0.136852396,0.068426199,0.078201365,0.097751703,0.127077222,0.332355833,0.38123167,0.244379282,0.234604096,0.576735067,0.215053773,0.615835762,0.244379282,0.293255119
0.078201365,0.058651023,0.127077222,0.068426199,0.078201365,0.087976542,0.117302048,0.332355833,0.371456504,0.234604096,0.234604096,0.615835762,0.215053773,0.615835762,0.234604096,0.283479958
0.078201365,0.058651023,0.127077222,0.068426199,0.078201365,0.087976542,0.136852396,0.351906157,0.38123167,0.234604096,0.234604096,0.6060606,0.234604096,0.615835762,0.234604096,0.283479958
0.078201365,0.058651023,0.127077222,0.068426199,0.078201365,0.087976542,0.136852396,0.342130995,0.371456504,0.234604096,0.234604096,0.6060606,0.224828935,0.6060606,0.234604096,0.283479958
0.078201365,0.058651023,0.127077222,0.068426199,0.078201365,0.087976542,0.14662756,0.332355833,0.371456504,0.224828935,0.224828935,0.586510229,0.224828935,0.586510229,0.234604096,0.293255119
0.078201365,0.058651023,0.127077222,0.068426199,0.078201365,0.078201365,0.14662756,0.342130995,0.371456504,0.244379282,0.234604096,0.576735067,0.224828935,0.557184744,0.234604096,0.283479958
0.078201365,0.058651023,0.127077222,0.078201365,0.068426199,0.078201365,0.14662756,0.322580624,0.391006832,0.263929605,0.234604096,0.576735067,0.234604096,0.566959906,0.234604096,0.273704791
0.078201365,0.058651023,0.127077222,0.078201365,0.078201365,0.078201365,0.136852396,0.312805462,0.469208193,0.273704791,0.244379282,0.586510229,0.234604096,0.596285439,0.224828935,0.273704791
0.078201365,0.068426199,0.127077222,0.068426199,0.078201365,0.078201365,0.127077222,0.3030303,0.478983355,0.273704791,0.244379282,0.586510229,0.234604096,0.576735067,0.224828935,0.273704791
0.078201365,0.068426199,0.136852396,0.078201365,0.078201365,0.087976542,0.136852396,0.3030303,0.478983355,0.273704791,0.254154444,0.566959906,0.224828935,0.576735067,0.224828935,0.263929605
0.078201365,0.078201365,0.136852396,0.078201365,0.087976542,0.087976542,0.14662756,0.3030303,0.469208193,0.263929605,0.254154444,0.586510229,0.224828935,0.557184744,0.215053773,0.263929605
0.068426199,0.078201365,0.127077222,0.078201365,0.087976542,0.097751703,0.14662756,0.293255119,0.478983355,0.263929605,0.244379282,0.566959906,0.224828935,0.547409582,0.234604096,0.273704791
0.068426199,0.087976542,0.136852396,0.087976542,0.087976542,0.087976542,0.136852396,0.3030303,0.478983355,0.254154444,0.234604096,0.615835762,0.215053773,0.527859211,0.234604096,0.273704791
0.068426199,0.087976542,0.136852396,0.087976542,0.087976542,0.097751703,0.136852396,0.293255119,0.498533726,0.244379282,0.234604096,0.635386086,0.234604096,0.518084049,0.254154444,0.283479958
0.068426199,0.107526886,0.127077222,0.087976542,0.097751703,0.097751703,0.127077222,0.283479958,0.527859211,0.244379282,0.224828935,0.645161247,0.224828935,0.518084049,0.254154444,0.273704791
0.068426199,0.117302048,0.127077222,0.087976542,0.097751703,0.087976542,0.136852396,0.293255119,0.527859211,0.244379282,0.234604096,0.635386086,0.234604096,0.498533726,0.254154444,0.263929605
0.068426199,0.117302048,0.136852396,0.087976542,0.087976542,0.087976542,0.127077222,0.312805462,0.508308887,0.244379282,0.234604096,0.635386086,0.234604096,0.488758564,0.283479958,0.254154444
0.068426199,0.117302048,0.127077222,0.087976542,0.097751703,0.087976542,0.127077222,0.351906157,0.53763442,0.234604096,0.244379282,0.6060606,0.234604096,0.488758564,0.273704791,0.273704791
0.068426199,0.117302048,0.127077222,0.087976542,0.087976542,0.087976542,0.127077222,0.351906157,0.53763442,0.244379282,0.234604096,0.615835762,0.234604096,0.478983355,0.273704791,0.263929605
0.068426199,0.117302048,0.127077222,0.087976542,0.087976542,0.078201365,0.127077222,0.371456504,0.566959906,0.244379282,0.234604096,0.596285439,0.244379282,0.469208193,0.273704791,0.254154444
0.068426199,0.136852396,0.127077222,0.078201365,0.087976542,0.078201365,0.117302048,0.351906157,0.547409582,0.244379282,0.224828935,0.586510229,0.234604096,0.449657869,0.263929605,0.254154444
0.068426199,0.136852396,0.127077222,0.078201365,0.087976542,0.078201365,0.117302048,0.332355833,0.576735067,0.254154444,0.234604096,0.576735067,0.244379282,0.439882708,0.263929605,0.263929605
0.068426199,0.14662756,0.127077222,0.078201365,0.087976542,0.078201365,0.117302048,0.322580624,0.586510229,0.263929605,0.244379282,0.566959906,0.244379282,0.420332336,0.283479958,0.273704791
0.068426199,0.14662756,0.127077222,0.078201365,0.097751703,0.068426199,0.117302048,0.312805462,0.635386086,0.273704791,0.234604096,0.566959906,0.263929605,0.410557175,0.283479958,0.263929605
0.078201365,0.156402731,0.127077222,0.078201365,0.097751703,0.078201365,0.117302048,0.312805462,0.733137846,0.273704791,0.234604096,0.547409582,0.263929605,0.400782013,0.283479958,0.263929605
0.078201365,0.156402731,0.136852396,0.078201365,0.097751703,0.078201365,0.107526886,0.3030303,0.723362684,0.273704791,0.224828935,0.527859211,0.273704791,0.410557175,0.273704791,0.254154444
0.078201365,0.166177917,0.14662756,0.068426199,0.097751703,0.078201365,0.117302048,0.3030303,0.742913008,0.273704791,0.215053773,0.518084049,0.273704791,0.410557175,0.263929605,0.263929605
0.078201365,0.175953078,0.136852396,0.068426199,0.117302048,0.078201365,0.107526886,0.283479958,0.742913008,0.293255119,0.205278587,0.508308887,0.263929605,0.410557175,0.263929605,0.273704791
0.078201365,0.175953078,0.136852396,0.068426199,0.117302048,0.078201365,0.107526886,0.3030303,0.742913008,0.293255119,0.205278587,0.508308887,0.254154444,0.400782013,0.293255119,0.273704791
0.078201365,0.175953078,0.136852396,0.068426199,0.127077222,0.068426199,0.117302048,0.312805462,0.713587475,0.3030303,0.215053773,0.498533726,0.254154444,0.391006832,0.283479958,0.293255119
0.078201365,0.175953078,0.14662756,0.068426199,0.117302048,0.068426199,0.107526886,0.332355833,0.752688169,0.293255119,0.205278587,0.488758564,0.244379282,0.391006832,0.3030303,0.283479958
0.068426199,0.185728254,0.136852396,0.068426199,0.117302048,0.078201365,0.107526886,0.332355833,0.869990253,0.293255119,0.195503416,0.488758564,0.254154444,0.371456504,0.3030303,0.283479958
0.068426199,0.185728254,0.136852396,0.078201365,0.117302048,0.068426199,0.097751703,0.322580624,0.899315739,0.293255119,0.195503416,0.478983355,0.254154444,0.371456504,0.293255119,0.273704791
0.068426199,0.185728254,0.14662756,0.068426199,0.127077222,0.078201365,0.097751703,0.3030303,0.879765415,0.293255119,0.205278587,0.459433031,0.254154444,0.361681342,0.312805462,0.273704791
0.068426199,0.195503416,0.136852396,0.068426199,0.14662756,0.078201365,0.097751703,0.312805462,0.948191547,0.3030303,0.205278587,0.459433031,0.254154444,0.342130995,0.312805462,0.263929605
0.058651023,0.195503416,0.136852396,0.068426199,0.14662756,0.078201365,0.097751703,0.332355833,1.016617775,0.332355833,0.224828935,0.478983355,0.273704791,0.342130995,0.312805462,0.273704791
0.058651023,0.195503416,0.136852396,0.068426199,0.14662756,0.078201365,0.097751703,0.322580624,1.016617775,0.322580624,0.224828935,0.488758564,0.263929605,0.332355833,0.332355833,0.273704791
0.058651023,0.195503416,0.127077222,0.078201365,0.136852396,0.087976542,0.097751703,0.322580624,1.006842613,0.342130995,0.224828935,0.469208193,0.254154444,0.332355833,0.351906157,0.273704791
0.058651023,0.205278587,0.127077222,0.078201365,0.136852396,0.087976542,0.097751703,0.312805462,0.997067451,0.371456504,0.234604096,0.459433031,0.254154444,0.322580624,0.342130995,0.263929605
0.048875852,0.215053773,0.117302048,0.078201365,0.136852396,0.078201365,0.097751703,0.322580624,0.948191547,0.391006832,0.224828935,0.449657869,0.244379282,0.312805462,0.332355833,0.263929605
0.048875852,0.205278587,0.117302048,0.078201365,0.136852396,0.087976542,0.097751703,0.332355833,0.918866062,0.391006832,0.215053773,0.420332336,0.244379282,0.3030303,0.322580624,0.263929605
0.048875852,0.215053773,0.117302048,0.078201365,0.14662756,0.097751703,0.097751703,0.342130995,0.957966709,0.38123167,0.205278587,0.420332336,0.244379282,0.293255119,0.322580624,0.263929605
0.048875852,0.215053773,0.117302048,0.078201365,0.14662756,0.097751703,0.097751703,0.322580624,1.006842613,0.400782013,0.205278587,0.391006832,0.234604096,0.3030303,0.322580624,0.293255119
0.039100683,0.215053773,0.127077222,0.078201365,0.14662756,0.097751703,0.087976542,0.322580624,0.997067451,0.430107546,0.205278587,0.38123167,0.224828935,0.283479958,0.371456504,0.283479958
0.039100683,0.215053773,0.117302048,0.078201365,0.14662756,0.097751703,0.087976542,0.322580624,0.967741871,0.410557175,0.205278587,0.371456504,0.224828935,0.273704791,0.371456504,0.283479958
0.039100683,0.205278587,0.117302048,0.078201365,0.156402731,0.087976542,0.087976542,0.332355833,0.948191547,0.400782013,0.205278587,0.371456504,0.234604096,0.283479958,0.400782013,0.273704791
0.048875852,0.205278587,0.107526886,0.078201365,0.14662756,0.087976542,0.087976542,0.322580624,0.957966709,0.430107546,0.215053773,0.38123167,0.224828935,0.273704791,0.400782013,0.263929605
0.039100683,0.205278587,0.107526886,0.078201365,0.14662756,0.087976542,0.087976542,0.332355833,0.918866062,0.430107546,0.215053773,0.400782013,0.224828935,0.283479958,0.391006832,0.263929605
0.048875852,0.195503416,0.107526886,0.078201365,0.156402731,0.087976542,0.087976542,0.351906157,0.879765415,0.449657869,0.215053773,0.391006832,0.224828935,0.283479958,0.391006832,0.273704791
0.048875852,0.195503416,0.117302048,0.078201365,0.14662756,0.097751703,0.078201365,0.351906157,0.918866062,0.459433031,0.224828935,0.410557175,0.224828935,0.283479958,0.38123167,0.273704791
0.048875852,0.185728254,0.107526886,0.078201365,0.156402731,0.087976542,0.087976542,0.371456504,0.938416386,0.449657869,0.224828935,0.410557175,0.224828935,0.283479958,0.371456504,0.263929605
0.048875852,0.185728254,0.117302048,0.078201365,0.156402731,0.097751703,0.087976542,0.361681342,0.918866062,0.459433031,0.215053773,0.400782013,0.224828935,0.293255119,0.361681342,0.263929605
0.058651023,0.185728254,0.117302048,0.078201365,0.14662756,0.087976542,0.078201365,0.391006832,0.879765415,0.439882708,0.224828935,0.391006832,0.224828935,0.312805462,0.342130995,0.254154444
0.058651023,0.185728254,0.117302048,0.078201365,0.136852396,0.097751703,0.078201365,0.420332336,0.879765415,0.439882708,0.224828935,0.371456504,0.224828935,0.312805462,0.332355833,0.273704791
0.058651023,0.175953078,0.117302048,0.087976542,0.14662756,0.097751703,0.087976542,0.439882708,0.9090909,0.439882708,0.224828935,0.371456504,0.224828935,0.332355833,0.332355833,0.263929605
0.058651023,0.166177917,0.117302048,0.097751703,0.14662756,0.097751703,0.087976542,0.449657869,0.9090909,0.430107546,0.234604096,0.38123167,0.234604096,0.342130995,0.322580624,0.263929605
0.058651023,0.166177917,0.117302048,0.117302048,0.14662756,0.097751703,0.087976542,0.430107546,0.889540577,0.439882708,0.234604096,0.391006832,0.224828935,0.351906157,0.312805462,0.254154444
0.058651023,0.166177917,0.107526886,0.117302048,0.166177917,0.097751703,0.087976542,0.430107546,0.869990253,0.439882708,0.244379282,0.38123167,0.224828935,0.361681342,0.3030303,0.263929605
0.058651023,0.156402731,0.107526886,0.117302048,0.156402731,0.097751703,0.087976542,0.420332336,0.869990253,0.459433031,0.254154444,0.371456504,0.215053773,0.361681342,0.3030303,0.263929605
0.058651023,0.14662756,0.107526886,0.107526886,0.156402731,0.097751703,0.087976542,0.420332336,0.879765415,0.488758564,0.254154444,0.371456504,0.215053773,0.361681342,0.3030303,0.254154444
0.058651023,0.136852396,0.107526886,0.117302048,0.156402731,0.087976542,0.078201365,0.400782013,0.860215092,0.508308887,0.254154444,0.361681342,0.215053773,0.351906157,0.293255119,0.254154444
0.058651023,0.136852396,0.107526886,0.107526886,0.156402731,0.087976542,0.087976542,0.420332336,0.860215092,0.498533726,0.254154444,0.351906157,0.215053773,0.342130995,0.283479958,0.244379282
0.058651023,0.127077222,0.107526886,0.107526886,0.14662756,0.087976542,0.078201365,0.410557175,0.879765415,0.508308887,0.263929605,0.332355833,0.234604096,0.332355833,0.283479958,0.254154444
0.068426199,0.127077222,0.107526886,0.117302048,0.14662756,0.087976542,0.087976542,0.439882708,0.869990253,0.518084049,0.254154444,0.342130995,0.234604096,0.342130995,0.273704791,0.254154444
0.068426199,0.117302048,0.107526886,0.117302048,0.14662756,0.097751703,0.078201365,0.439882708,0.869990253,0.508308887,0.254154444,0.351906157,0.234604096,0.332355833,0.273704791,0.244379282
0.068426199,0.117302048,0.107526886,0.117302048,0.156402731,0.097751703,0.078201365,0.420332336,0.879765415,0.488758564,0.244379282,0.38123167,0.224828935,0.332355833,0.263929605,0.234604096
0.068426199,0.117302048,0.097751703,0.117302048,0.166177917,0.097751703,0.087976542,0.420332336,0.879765415,0.508308887,0.234604096,0.410557175,0.224828935,0.332355833,0.254154444,0.234604096
0.068426199,0.107526886,0.097751703,0.127077222,0.166177917,0.087976542,0.087976542,0.410557175,0.869990253,0.53763442,0.234604096,0.410557175,0.224828935,0.332355833,0.244379282,0.234604096
0.068426199,0.107526886,0.097751703,0.127077222,0.175953078,0.097751703,0.087976542,0.410557175,0.85043993,0.53763442,0.244379282,0.410557175,0.224828935,0.322580624,0.244379282,0.234604096
0.068426199,0.097751703,0.097751703,0.127077222,0.166177917,0.097751703,0.087976542,0.391006832,0.899315739,0.547409582,0.244379282,0.400782013,0.215053773,0.312805462,0.254154444,0.234604096
0.068426199,0.097751703,0.097751703,0.117302048,0.166177917,0.097751703,0.087976542,0.391006832,0.860215092,0.547409582,0.244379282,0.400782013,0.215053773,0.3030303,0.254154444,0.234604096
0.068426199,0.097751703,0.097751703,0.127077222,0.156402731,0.097751703,0.078201365,0.410557175,0.85043993,0.53763442,0.244379282,0.391006832,0.215053773,0.293255119,0.244379282,0.224828935
0.068426199,0.097751703,0.097751703,0.127077222,0.156402731,0.097751703,0.078201365,0.430107546,0.869990253,0.566959906,0.244379282,0.38123167,0.215053773,0.293255119,0.254154444,0.224828935
0.068426199,0.097751703,0.087976542,0.127077222,0.156402731,0.097751703,0.078201365,0.430107546,0.889540577,0.6060606,0.244379282,0.400782013,0.215053773,0.283479958,0.254154444,0.234604096
0.068426199,0.087976542,0.087976542,0.127077222,0.14662756,0.087976542,0.078201365,0.410557175,0.899315739,0.615835762,0.224828935,0.449657869,0.215053773,0.273704791,0.244379282,0.234604096
0.068426199,0.087976542,0.097751703,0.136852396,0.14662756,0.097751703,0.078201365,0.400782013,0.918866062,0.615835762,0.234604096,0.498533726,0.224828935,0.283479958,0.244379282,0.234604096
0.068426199,0.097751703,0.087976542,0.136852396,0.14662756,0.097751703,0.078201365,0.38123167,0.9090909,0.615835762,0.215053773,0.498533726,0.224828935,0.293255119,0.244379282,0.234604096
0.068426199,0.087976542,0.097751703,0.156402731,0.14662756,0.097751703,0.078201365,0.371456504,0.869990253,0.615835762,0.234604096,0.488758564,0.234604096,0.283479958,0.234604096,0.254154444
0.068426199,0.087976542,0.097751703,0.156402731,0.136852396,0.097751703,0.068426199,0.361681342,0.869990253,0.596285439,0.234604096,0.469208193,0.234604096,0.283479958,0.215053773,0.263929605
0.068426199,0.087976542,0.097751703,0.156402731,0.14662756,0.087976542,0.068426199,0.361681342,0.860215092,0.576735067,0.234604096,0.449657869,0.224828935,0.3030303,0.224828935,0.263929605
0.068426199,0.087976542,0.097751703,0.156402731,0.14662756,0.087976542,0.068426199,0.371456504,0.821114349,0.566959906,0.234604096,0.430107546,0.224828935,0.3030303,0.224828935,0.254154444
0.068426199,0.087976542,0.097751703,0.14662756,0.136852396,0.087976542,0.078201365,0.351906157,0.811339188,0.566959906,0.234604096,0.420332336,0.215053773,0.3030303,0.244379282,0.254154444
0.068426199,0.087976542,0.097751703,0.14662756,0.136852396,0.087976542,0.078201365,0.351906157,0.840664673,0.547409582,0.224828935,0.400782013,0.215053773,0.293255119,0.234604096,0.254154444
0.068426199,0.087976542,0.097751703,0.14662756,0.136852396,0.087976542,0.078201365,0.38123167,0.840664673,0.547409582,0.224828935,0.391006832,0.215053773,0.293255119,0.234604096,0.244379282
0.068426199,0.078201365,0.097751703,0.14662756,0.136852396,0.087976542,0.087976542,0.420332336,0.840664673,0.547409582,0.234604096,0.371456504,0.205278587,0.293255119,0.224828935,0.234604096
0.068426199,0.078201365,0.087976542,0.136852396,0.136852396,0.087976542,0.087976542,0.420332336,0.811339188,0.53763442,0.224828935,0.391006832,0.215053773,0.3030303,0.234604096,0.244379282
0.068426199,0.087976542,0.087976542,0.127077222,0.156402731,0.087976542,0.087976542,0.400782013,0.791788864,0.566959906,0.224828935,0.391006832,0.205278587,0.3030303,0.254154444,0.254154444
0.068426199,0.078201365,0.087976542,0.127077222,0.156402731,0.087976542,0.078201365,0.400782013,0.762463331,0.586510229,0.234604096,0.400782013,0.205278587,0.312805462,0.254154444,0.263929605
0.068426199,0.078201365,0.097751703,0.127077222,0.14662756,0.087976542,0.078201365,0.410557175,0.762463331,0.596285439,0.224828935,0.400782013,0.205278587,0.312805462,0.273704791,0.254154444
0.078201365,0.078201365,0.107526886,0.117302048,0.136852396,0.087976542,0.087976542,0.400782013,0.723362684,0.596285439,0.234604096,0.391006832,0.195503416,0.312805462,0.293255119,0.254154444
0.078201365,0.068426199,0.097751703,0.117302048,0.136852396,0.078201365,0.078201365,0.400782013,0.752688169,0.586510229,0.234604096,0.391006832,0.205278587,0.322580624,0.312805462,0.254154444
0.078201365,0.068426199,0.097751703,0.127077222,0.14662756,0.078201365,0.087976542,0.430107546,0.762463331,0.586510229,0.234604096,0.400782013,0.195503416,0.322580624,0.312805462,0.254154444
0.078201365,0.068426199,0.097751703,0.127077222,0.136852396,0.087976542,0.078201365,0.420332336,0.762463331,0.566959906,0.234604096,0.391006832,0.195503416,0.322580624,0.312805462,0.254154444
0.078201365,0.068426199,0.097751703,0.117302048,0.136852396,0.097751703,0.078201365,0.469208193,0.752688169,0.576735067,0.234604096,0.38123167,0.195503416,0.322580624,0.332355833,0.254154444
0.078201365,0.068426199,0.107526886,0.127077222,0.14662756,0.087976542,0.078201365,0.488758564,0.733137846,0.6060606,0.224828935,0.361681342,0.195503416,0.322580624,0.351906157,0.263929605
0.087976542,0.068426199,0.107526886,0.117302048,0.14662756,0.087976542,0.078201365,0.518084049,0.723362684,0.615835762,0.234604096,0.351906157,0.195503416,0.312805462,0.342130995,0.254154444
0.087976542,0.068426199,0.097751703,0.117302048,0.156402731,0.087976542,0.078201365,0.508308887,0.752688169,0.6060606,0.215053773,0.332355833,0.185728254,0.3030303,0.332355833,0.254154444
0.087976542,0.068426199,0.107526886,0.117302048,0.156402731,0.087976542,0.087976542,0.508308887,0.752688169,0.6060606,0.224828935,0.332355833,0.185728254,0.312805462,0.322580624,0.244379282
0.078201365,0.058651023,0.097751703,0.117302048,0.156402731,0.087976542,0.078201365,0.547409582,0.733137846,0.6060606,0.224828935,0.332355833,0.185728254,0.322580624,0.312805462,0.234604096
0.078201365,0.068426199,0.097751703,0.117302048,0.156402731,0.087976542,0.078201365,0.53763442,0.713587475,0.6060606,0.224828935,0.332355833,0.185728254,0.322580624,0.293255119,0.234604096
0.078201365,0.058651023,0.097751703,0.127077222,0.156402731,0.087976542,0.078201365,0.557184744,0.713587475,0.654936409,0.234604096,0.332355833,0.185728254,0.342130995,0.283479958,0.234604096
0.078201365,0.058651023,0.097751703,0.14662756,0.156402731,0.078201365,0.078201365,0.547409582,0.752688169,0.645161247,0.224828935,0.351906157,0.185728254,0.332355833,0.273704791,0.224828935
0.078201365,0.058651023,0.097751703,0.14662756,0.156402731,0.078201365,0.078201365,0.527859211,0.752688169,0.654936409,0.234604096,0.342130995,0.185728254,0.322580624,0.283479958,0.224828935
0.078201365,0.058651023,0.097751703,0.14662756,0.14662756,0.078201365,0.078201365,0.518084049,0.733137846,0.635386086,0.234604096,0.361681342,0.195503416,0.312805462,0.283479958,0.215053773
0.078201365,0.058651023,0.097751703,0.14662756,0.14662756,0.078201365,0.078201365,0.498533726,0.723362684,0.664711666,0.234604096,0.351906157,0.205278587,0.3030303,0.283479958,0.224828935
0.068426199,0.058651023,0.097751703,0.14662756,0.14662756,0.078201365,0.078201365,0.508308887,0.713587475,0.694037151,0.234604096,0.342130995,0.224828935,0.3030303,0.283479958,0.215053773
0.068426199,0.058651023,0.097751703,0.156402731,0.14662756,0.078201365,0.087976542,0.488758564,0.723362684,0.742913008,0.234604096,0.332355833,0.215053773,0.312805462,0.293255119,0.215053773
0.068426199,0.058651023,0.097751703,0.156402731,0.166177917,0.097751703,0.078201365,0.469208193,0.703812313,0.762463331,0.224828935,0.332355833,0.215053773,0.3030303,0.3030303,0.215053773
0.058651023,0.058651023,0.107526886,0.156402731,0.166177917,0.087976542,0.078201365,0.459433031,0.674486828,0.801564026,0.224828935,0.322580624,0.215053773,0.293255119,0.293255119,0.215053773
0.068426199,0.058651023,0.097751703,0.156402731,0.156402731,0.087976542,0.078201365,0.439882708,0.674486828,0.821114349,0.215053773,0.332355833,0.234604096,0.293255119,0.293255119,0.224828935
0.068426199,0.058651023,0.107526886,0.166177917,0.156402731,0.087976542,0.078201365,0.430107546,0.664711666,0.791788864,0.215053773,0.322580624,0.244379282,0.3030303,0.293255119,0.244379282
0.058651023,0.058651023,0.097751703,0.166177917,0.156402731,0.087976542,0.078201365,0.449657869,0.645161247,0.811339188,0.224828935,0.322580624,0.244379282,0.3030303,0.312805462,0.244379282
0.058651023,0.068426199,0.097751703,0.175953078,0.156402731,0.087976542,0.078201365,0.459433031,0.625610924,0.830889511,0.224828935,0.312805462,0.263929605,0.293255119,0.3030303,0.263929605
0.058651023,0.058651023,0.097751703,0.175953078,0.14662756,0.087976542,0.078201365,0.439882708,0.6060606,0.899315739,0.224828935,0.3030303,0.273704791,0.293255119,0.312805462,0.254154444
0.058651023,0.058651023,0.097751703,0.195503416,0.14662756,0.087976542,0.087976542,0.459433031,0.6060606,0.899315739,0.215053773,0.3030303,0.293255119,0.283479958,0.3030303,0.254154444
0.058651023,0.058651023,0.107526886,0.205278587,0.14662756,0.087976542,0.087976542,0.449657869,0.615835762,0.860215092,0.224828935,0.3030303,0.3030303,0.283479958,0.293255119,0.254154444
0.058651023,0.058651023,0.107526886,0.205278587,0.14662756,0.097751703,0.087976542,0.449657869,0.615835762,0.879765415,0.215053773,0.3030303,0.293255119,0.273704791,0.293255119,0.254154444
0.048875852,0.058651023,0.107526886,0.205278587,0.14662756,0.087976542,0.097751703,0.469208193,0.6060606,0.879765415,0.215053773,0.3030303,0.293255119,0.283479958,0.283479958,0.254154444
0.048875852,0.068426199,0.107526886,0.215053773,0.156402731,0.087976542,0.087976542,0.469208193,0.6060606,0.9090909,0.215053773,0.293255119,0.322580624,0.293255119,0.283479958,0.254154444
0.048875852,0.068426199,0.107526886,0.244379282,0.14662756,0.087976542,0.087976542,0.459433031,0.596285439,0.918866062,0.205278587,0.293255119,0.342130995,0.312805462,0.283479958,0.254154444
0.048875852,0.068426199,0.117302048,0.234604096,0.156402731,0.087976542,0.087976542,0.449657869,0.625610924,0.967741871,0.215053773,0.293255119,0.361681342,0.3030303,0.293255119,0.263929605
0.048875852,0.068426199,0.117302048,0.224828935,0.166177917,0.087976542,0.087976542,0.469208193,0.615835762,0.977517128,0.205278587,0.283479958,0.371456504,0.3030303,0.293255119,0.263929605
0.048875852,0.078201365,0.107526886,0.234604096,0.166177917,0.087976542,0.087976542,0.469208193,0.596285439,0.948191547,0.205278587,0.283479958,0.38123167,0.293255119,0.293255119,0.254154444
0.048875852,0.078201365,0.117302048,0.234604096,0.175953078,0.087976542,0.087976542,0.498533726,0.586510229,0.948191547,0.205278587,0.283479958,0.400782013,0.283479958,0.293255119,0.244379282
0.048875852,0.078201365,0.107526886,0.234604096,0.166177917,0.097751703,0.087976542,0.498533726,0.576735067,0.997067451,0.205278587,0.283479958,0.439882708,0.283479958,0.293255119,0.244379282
0.048875852,0.087976542,0.107526886,0.234604096,0.166177917,0.097751703,0.087976542,0.478983355,0.547409582,1.016617775,0.195503416,0.283479958,0.469208193,0.273704791,0.293255119,0.234604096
0.048875852,0.087976542,0.107526886,0.254154444,0.166177917,0.097751703,0.087976542,0.459433031,0.557184744,0.977517128,0.195503416,0.283479958,0.469208193,0.263929605,0.293255119,0.234604096
0.048875852,0.087976542,0.107526886,0.254154444,0.166177917,0.097751703,0.087976542,0.469208193,0.576735067,1.016617775,0.185728254,0.283479958,0.498533726,0.263929605,0.3030303,0.244379282
0.048875852,0.087976542,0.117302048,0.283479958,0.156402731,0.097751703,0.087976542,0.459433031,0.596285439,1.055718422,0.175953078,0.293255119,0.498533726,0.254154444,0.3030303,0.244379282
0.058651023,0.087976542,0.107526886,0.293255119,0.156402731,0.097751703,0.087976542,0.459433031,0.596285439,1.006842613,0.175953078,0.293255119,0.488758564,0.254154444,0.312805462,0.244379282
0.048875852,0.078201365,0.107526886,0.293255119,0.156402731,0.087976542,0.087976542,0.449657869,0.576735067,0.977517128,0.175953078,0.283479958,0.478983355,0.244379282,0.312805462,0.244379282
0.048875852,0.087976542,0.107526886,0.293255119,0.156402731,0.087976542,0.087976542,0.469208193,0.576735067,0.948191547,0.185728254,0.283479958,0.469208193,0.244379282,0.312805462,0.234604096
0.048875852,0.087976542,0.117302048,0.293255119,0.166177917,0.087976542,0.087976542,0.478983355,0.566959906,0.967741871,0.185728254,0.283479958,0.488758564,0.244379282,0.293255119,0.244379282
0.048875852,0.087976542,0.117302048,0.3030303,0.166177917,0.087976542,0.087976542,0.488758564,0.53763442,0.948191547,0.185728254,0.283479958,0.469208193,0.244379282,0.312805462,0.254154444
0.048875852,0.087976542,0.127077222,0.312805462,0.166177917,0.087976542,0.097751703,0.469208193,0.527859211,0.938416386,0.185728254,0.273704791,0.459433031,0.244379282,0.322580624,0.254154444
0.048875852,0.087976542,0.127077222,0.332355833,0.166177917,0.087976542,0.097751703,0.469208193,0.557184744,0.928641224,0.175953078,0.273704791,0.449657869,0.244379282,0.322580624,0.273704791
0.048875852,0.097751703,0.117302048,0.342130995,0.156402731,0.087976542,0.097751703,0.459433031,0.566959906,0.918866062,0.185728254,0.263929605,0.439882708,0.263929605,0.312805462,0.263929605
0.058651023,0.097751703,0.127077222,0.342130995,0.156402731,0.087976542,0.107526886,0.449657869,0.566959906,0.928641224,0.175953078,0.263929605,0.439882708,0.254154444,0.3030303,0.263929605
0.048875852,0.107526886,0.117302048,0.332355833,0.166177917,0.078201365,0.107526886,0.449657869,0.566959906,1.026392937,0.175953078,0.254154444,0.430107546,0.254154444,0.342130995,0.254154444
0.048875852,0.107526886,0.117302048,0.322580624,0.166177917,0.087976542,0.117302048,0.449657869,0.547409582,1.04594326,0.175953078,0.263929605,0.420332336,0.254154444,0.361681342,0.273704791
0.048875852,0.107526886,0.117302048,0.312805462,0.166177917,0.078201365,0.107526886,0.449657869,0.527859211,1.04594326,0.166177917,0.273704791,0.400782013,0.254154444,0.361681342,0.273704791
0.048875852,0.107526886,0.117302048,0.3030303,0.166177917,0.078201365,0.107526886,0.449657869,0.518084049,1.026392937,0.166177917,0.263929605,0.38123167,0.244379282,0.400782013,0.273704791
0.048875852,0.117302048,0.107526886,0.3030303,0.166177917,0.078201365,0.107526886,0.449657869,0.527859211,1.006842613,0.166177917,0.273704791,0.371456504,0.254154444,0.420332336,0.273704791
0.048875852,0.117302048,0.117302048,0.3030303,0.156402731,0.078201365,0.097751703,0.449657869,0.518084049,1.016617775,0.166177917,0.3030303,0.371456504,0.254154444,0.459433031,0.273704791
0.048875852,0.117302048,0.117302048,0.312805462,0.156402731,0.068426199,0.097751703,0.430107546,0.508308887,1.016617775,0.166177917,0.3030303,0.361681342,0.254154444,0.469208193,0.263929605
0.048875852,0.117302048,0.127077222,0.312805462,0.185728254,0.068426199,0.107526886,0.430107546,0.498533726,1.016617775,0.156402731,0.3030303,0.351906157,0.244379282,0.498533726,0.273704791
0.058651023,0.117302048,0.127077222,0.312805462,0.224828935,0.068426199,0.097751703,0.420332336,0.488758564,0.98729229,0.156402731,0.3030303,0.332355833,0.263929605,0.488758564,0.273704791
0.048875852,0.117302048,0.127077222,0.351906157,0.244379282,0.068426199,0.097751703,0.420332336,0.488758564,0.967741871,0.156402731,0.312805462,0.332355833,0.273704791,0.498533726,0.293255119
0.048875852,0.117302048,0.117302048,0.342130995,0.234604096,0.068426199,0.097751703,0.430107546,0.498533726,0.948191547,0.156402731,0.3030303,0.322580624,0.263929605,0.488758564,0.293255119
0.048875852,0.127077222,0.117302048,0.351906157,0.224828935,0.078201365,0.097751703,0.420332336,0.527859211,0.928641224,0.156402731,0.293255119,0.322580624,0.273704791,0.518084049,0.293255119
0.048875852,0.117302048,0.117302048,0.342130995,0.215053773,0.068426199,0.097751703,0.430107546,0.547409582,0.928641224,0.156402731,0.312805462,0.322580624,0.283479958,0.547409582,0.283479958
0.048875852,0.127077222,0.117302048,0.361681342,0.205278587,0.068426199,0.087976542,0.410557175,0.53763442,0.918866062,0.166177917,0.312805462,0.312805462,0.273704791,0.566959906,0.283479958
0.048875852,0.117302048,0.107526886,0.371456504,0.195503416,0.068426199,0.097751703,0.391006832,0.518084049,0.899315739,0.185728254,0.3030303,0.3030303,0.293255119,0.586510229,0.273704791
0.058651023,0.127077222,0.107526886,0.371456504,0.205278587,0.068426199,0.097751703,0.371456504,0.508308887,0.860215092,0.185728254,0.3030303,0.293255119,0.283479958,0.6060606,0.283479958
0.048875852,0.127077222,0.107526886,0.38123167,0.195503416,0.078201365,0.097751703,0.371456504,0.488758564,0.85043993,0.185728254,0.312805462,0.293255119,0.283479958,0.615835762,0.283479958
0.058651023,0.127077222,0.107526886,0.400782013,0.185728254,0.078201365,0.097751703,0.361681342,0.478983355,0.830889511,0.195503416,0.293255119,0.283479958,0.283479958,0.6060606,0.293255119
0.048875852,0.117302048,0.107526886,0.391006832,0.195503416,0.078201365,0.087976542,0.342130995,0.469208193,0.811339188,0.215053773,0.283479958,0.283479958,0.273704791,0.596285439,0.283479958
0.048875852,0.117302048,0.107526886,0.391006832,0.195503416,0.078201365,0.097751703,0.322580624,0.488758564,0.811339188,0.205278587,0.273704791,0.273704791,0.263929605,0.576735067,0.283479958
0.048875852,0.117302048,0.107526886,0.38123167,0.195503416,0.078201365,0.087976542,0.312805462,0.488758564,0.830889511,0.205278587,0.263929605,0.273704791,0.254154444,0.615835762,0.283479958
0.048875852,0.117302048,0.107526886,0.38123167,0.185728254,0.078201365,0.087976542,0.3030303,0.478983355,0.821114349,0.205278587,0.273704791,0.273704791,0.273704791,0.6060606,0.283479958
0.048875852,0.107526886,0.107526886,0.391006832,0.185728254,0.078201365,0.087976542,0.293255119,0.459433031,0.801564026,0.205278587,0.293255119,0.273704791,0.283479958,0.6060606,0.293255119
0.058651023,0.107526886,0.107526886,0.410557175,0.175953078,0.078201365,0.087976542,0.283479958,0.459433031,0.782013655,0.205278587,0.3030303,0.273704791,0.283479958,0.6060606,0.283479958
0.058651023,0.107526886,0.107526886,0.420332336,0.166177917,0.078201365,0.087976542,0.273704791,0.449657869,0.752688169,0.195503416,0.312805462,0.273704791,0.273704791,0.596285439,0.273704791
0.048875852,0.097751703,0.107526886,0.400782013,0.166177917,0.078201365,0.087976542,0.273704791,0.449657869,0.752688169,0.205278587,0.312805462,0.263929605,0.263929605,0.586510229,0.273704791
0.048875852,0.107526886,0.097751703,0.391006832,0.175953078,0.087976542,0.087976542,0.263929605,0.488758564,0.752688169,0.195503416,0.322580624,0.263929605,0.263929605,0.576735067,0.273704791
0.058651023,0.097751703,0.097751703,0.400782013,0.166177917,0.087976542,0.087976542,0.254154444,0.488758564,0.752688169,0.185728254,0.322580624,0.263929605,0.254154444,0.566959906,0.283479958
0.058651023,0.097751703,0.107526886,0.391006832,0.166177917,0.087976542,0.087976542,0.263929605,0.478983355,0.733137846,0.185728254,0.322580624,0.254154444,0.254154444,0.566959906,0.293255119
0.048875852,0.097751703,0.097751703,0.391006832,0.156402731,0.097751703,0.087976542,0.263929605,0.469208193,0.723362684,0.195503416,0.3030303,0.244379282,0.244379282,0.547409582,0.293255119
0.058651023,0.097751703,0.097751703,0.391006832,0.156402731,0.097751703,0.097751703,0.263929605,0.459433031,0.723362684,0.195503416,0.293255119,0.254154444,0.244379282,0.586510229,0.283479958
0.058651023,0.107526886,0.097751703,0.391006832,0.156402731,0.097751703,0.087976542,0.254154444,0.459433031,0.694037151,0.195503416,0.293255119,0.254154444,0.234604096,0.635386086,0.283479958
0.048875852,0.107526886,0.097751703,0.38123167,0.14662756,0.097751703,0.087976542,0.244379282,0.439882708,0.742913008,0.195503416,0.283479958,0.244379282,0.234604096,0.625610924,0.283479958
0.048875852,0.107526886,0.097751703,0.38123167,0.156402731,0.107526886,0.087976542,0.234604096,0.430107546,0.713587475,0.195503416,0.273704791,0.234604096,0.234604096,0.6060606,0.283479958
0.048875852,0.107526886,0.097751703,0.38123167,0.166177917,0.097751703,0.078201365,0.234604096,0.439882708,0.723362684,0.185728254,0.273704791,0.234604096,0.234604096,0.6060606,0.283479958
0.058651023,0.097751703,0.097751703,0.38123167,0.166177917,0.097751703,0.078201365,0.234604096,0.420332336,0.723362684,0.185728254,0.273704791,0.234604096,0.244379282,0.615835762,0.293255119
0.058651023,0.097751703,0.097751703,0.38123167,0.166177917,0.097751703,0.078201365,0.234604096,0.400782013,0.733137846,0.185728254,0.273704791,0.234604096,0.254154444,0.654936409,0.283479958
0.058651023,0.087976542,0.097751703,0.391006832,0.166177917,0.097751703,0.078201365,0.234604096,0.391006832,0.713587475,0.195503416,0.254154444,0.224828935,0.263929605,0.645161247,0.283479958
0.058651023,0.097751703,0.107526886,0.400782013,0.166177917,0.097751703,0.068426199,0.224828935,0.38123167,0.742913008,0.185728254,0.254154444,0.215053773,0.254154444,0.645161247,0.273704791
0.068426199,0.107526886,0.107526886,0.400782013,0.166177917,0.087976542,0.068426199,0.215053773,0.391006832,0.782013655,0.195503416,0.263929605,0.224828935,0.263929605,0.645161247,0.273704791
0.068426199,0.097751703,0.107526886,0.410557175,0.185728254,0.087976542,0.078201365,0.205278587,0.430107546,0.782013655,0.195503416,0.254154444,0.224828935,0.273704791,0.654936409,0.263929605
0.058651023,0.097751703,0.107526886,0.400782013,0.185728254,0.078201365,0.078201365,0.195503416,0.439882708,0.752688169,0.185728254,0.263929605,0.215053773,0.3030303,0.694037151,0.263929605
0.068426199,0.087976542,0.097751703,0.400782013,0.185728254,0.078201365,0.078201365,0.195503416,0.430107546,0.782013655,0.195503416,0.263929605,0.215053773,0.293255119,0.772238493,0.263929605
0.068426199,0.087976542,0.097751703,0.420332336,0.185728254,0.078201365,0.078201365,0.195503416,0.420332336,0.762463331,0.195503416,0.254154444,0.205278587,0.322580624,0.782013655,0.244379282
0.068426199,0.087976542,0.087976542,0.430107546,0.185728254,0.068426199,0.078201365,0.185728254,0.410557175,0.742913008,0.185728254,0.254154444,0.195503416,0.312805462,0.782013655,0.244379282
0.068426199,0.097751703,0.087976542,0.430107546,0.195503416,0.068426199,0.078201365,0.175953078,0.410557175,0.742913008,0.195503416,0.263929605,0.195503416,0.293255119,0.772238493,0.234604096
0.078201365,0.087976542,0.087976542,0.420332336,0.185728254,0.058651023,0.087976542,0.166177917,0.391006832,0.742913008,0.185728254,0.254154444,0.185728254,0.293255119,0.762463331,0.244379282
0.068426199,0.087976542,0.087976542,0.420332336,0.185728254,0.058651023,0.078201365,0.166177917,0.371456504,0.742913008,0.195503416,0.263929605,0.185728254,0.293255119,0.733137846,0.244379282
0.068426199,0.087976542,0.097751703,0.420332336,0.185728254,0.058651023,0.078201365,0.156402731,0.361681342,0.723362684,0.195503416,0.254154444,0.185728254,0.293255119,0.703812313,0.234604096
0.068426199,0.087976542,0.097751703,0.420332336,0.175953078,0.048875852,0.078201365,0.166177917,0.351906157,0.703812313,0.195503416,0.263929605,0.195503416,0.3030303,0.752688169,0.234604096
0.068426199,0.087976542,0.107526886,0.430107546,0.195503416,0.048875852,0.078201365,0.175953078,0.351906157,0.694037151,0.185728254,0.273704791,0.185728254,0.293255119,0.782013655,0.283479958
0.058651023,0.078201365,0.107526886,0.430107546,0.195503416,0.048875852,0.078201365,0.175953078,0.342130995,0.674486828,0.185728254,0.263929605,0.195503416,0.293255119,0.85043993,0.312805462
0.058651023,0.078201365,0.097751703,0.430107546,0.215053773,0.048875852,0.068426199,0.175953078,0.342130995,0.664711666,0.185728254,0.263929605,0.195503416,0.293255119,0.821114349,0.322580624
0.058651023,0.078201365,0.097751703,0.449657869,0.215053773,0.048875852,0.068426199,0.175953078,0.342130995,0.645161247,0.185728254,0.273704791,0.195503416,0.3030303,0.791788864,0.322580624
0.058651023,0.078201365,0.087976542,0.439882708,0.205278587,0.039100683,0.068426199,0.175953078,0.342130995,0.645161247,0.185728254,0.263929605,0.185728254,0.293255119,0.791788864,0.312805462
0.058651023,0.078201365,0.087976542,0.459433031,0.195503416,0.048875852,0.068426199,0.166177917,0.332355833,0.635386086,0.195503416,0.273704791,0.185728254,0.293255119,0.801564026,0.312805462
0.068426199,0.078201365,0.087976542,0.469208193,0.205278587,0.048875852,0.068426199,0.156402731,0.322580624,0.6060606,0.195503416,0.283479958,0.185728254,0.3030303,0.811339188,0.312805462
0.058651023,0.078201365,0.087976542,0.478983355,0.205278587,0.039100683,0.078201365,0.156402731,0.322580624,0.596285439,0.185728254,0.273704791,0.185728254,0.293255119,0.791788864,0.3030303
0.058651023,0.078201365,0.078201365,0.459433031,0.195503416,0.039100683,0.068426199,0.156402731,0.312805462,0.586510229,0.185728254,0.273704791,0.185728254,0.283479958,0.830889511,0.3030303
0.058651023,0.078201365,0.078201365,0.478983355,0.195503416,0.039100683,0.068426199,0.14662756,0.312805462,0.566959906,0.175953078,0.283479958,0.185728254,0.3030303,0.830889511,0.293255119
0.058651023,0.078201365,0.068426199,0.488758564,0.195503416,0.039100683,0.068426199,0.14662756,0.3030303,0.576735067,0.185728254,0.273704791,0.185728254,0.3030303,0.821114349,0.293255119
0.058651023,0.068426199,0.078201365,0.527859211,0.195503416,0.039100683,0.078201365,0.14662756,0.3030303,0.576735067,0.185728254,0.273704791,0.195503416,0.3030303,0.801564026,0.293255119
0.068426199,0.068426199,0.078201365,0.527859211,0.205278587,0.039100683,0.078201365,0.14662756,0.312805462,0.566959906,0.185728254,0.283479958,0.195503416,0.293255119,0.791788864,0.283479958
0.068426199,0.058651023,0.078201365,0.566959906,0.205278587,0.039100683,0.078201365,0.14662756,0.322580624,0.557184744,0.185728254,0.283479958,0.195503416,0.293255119,0.782013655,0.273704791
0.068426199,0.058651023,0.078201365,0.566959906,0.195503416,0.039100683,0.078201365,0.14662756,0.312805462,0.576735067,0.185728254,0.283479958,0.185728254,0.283479958,0.782013655,0.273704791
0.078201365,0.068426199,0.078201365,0.547409582,0.195503416,0.039100683,0.078201365,0.14662756,0.312805462,0.576735067,0.195503416,0.283479958,0.195503416,0.283479958,0.752688169,0.263929605
0.078201365,0.058651023,0.068426199,0.547409582,0.195503416,0.039100683,0.087976542,0.156402731,0.312805462,0.6060606,0.195503416,0.283479958,0.195503416,0.283479958,0.742913008,0.254154444
0.078201365,0.058651023,0.078201365,0.586510229,0.205278587,0.039100683,0.078201365,0.156402731,0.3030303,0.6060606,0.175953078,0.293255119,0.205278587,0.273704791,0.733137846,0.254154444
0.078201365,0.058651023,0.078201365,0.615835762,0.195503416,0.048875852,0.078201365,0.166177917,0.293255119,0.596285439,0.175953078,0.293255119,0.205278587,0.273704791,0.742913008,0.244379282
0.078201365,0.058651023,0.078201365,0.635386086,0.195503416,0.058651023,0.087976542,0.166177917,0.283479958,0.6060606,0.166177917,0.283479958,0.195503416,0.273704791,0.801564026,0.234604096
0.078201365,0.068426199,0.068426199,0.635386086,0.205278587,0.048875852,0.087976542,0.166177917,0.283479958,0.6060606,0.166177917,0.283479958,0.195503416,0.283479958,0.899315739,0.224828935
0.078201365,0.068426199,0.068426199,0.625610924,0.205278587,0.058651023,0.087976542,0.166177917,0.283479958,0.596285439,0.156402731,0.273704791,0.195503416,0.283479958,0.869990253,0.224828935
0.078201365,0.068426199,0.068426199,0.625610924,0.224828935,0.078201365,0.087976542,0.166177917,0.273704791,0.586510229,0.156402731,0.273704791,0.195503416,0.283479958,0.85043993,0.234604096
0.087976542,0.058651023,0.068426199,0.615835762,0.224828935,0.087976542,0.087976542,0.166177917,0.273704791,0.6060606,0.156402731,0.263929605,0.195503416,0.283479958,0.840664673,0.234604096
0.078201365,0.058651023,0.068426199,0.615835762,0.234604096,0.087976542,0.087976542,0.185728254,0.273704791,0.615835762,0.14662756,0.263929605,0.195503416,0.283479958,0.821114349,0.234604096
0.087976542,0.068426199,0.058651023,0.6060606,0.234604096,0.087976542,0.087976542,0.205278587,0.273704791,0.625610924,0.14662756,0.254154444,0.195503416,0.283479958,0.801564026,0.244379282
0.087976542,0.058651023,0.058651023,0.586510229,0.215053773,0.087976542,0.087976542,0.205278587,0.293255119,0.625610924,0.14662756,0.254154444,0.195503416,0.283479958,0.811339188,0.254154444
0.097751703,0.058651023,0.068426199,0.566959906,0.215053773,0.097751703,0.087976542,0.215053773,0.293255119,0.625610924,0.14662756,0.254154444,0.195503416,0.273704791,0.811339188,0.263929605
0.087976542,0.068426199,0.068426199,0.557184744,0.224828935,0.087976542,0.078201365,0.215053773,0.293255119,0.6060606,0.175953078,0.244379282,0.205278587,0.273704791,0.782013655,0.254154444
0.097751703,0.058651023,0.058651023,0.596285439,0.224828935,0.087976542,0.087976542,0.205278587,0.283479958,0.586510229,0.166177917,0.254154444,0.205278587,0.263929605,0.782013655,0.254154444
0.097751703,0.058651023,0.058651023,0.576735067,0.215053773,0.087976542,0.078201365,0.205278587,0.283479958,0.566959906,0.14662756,0.254154444,0.205278587,0.263929605,0.772238493,0.244379282
0.097751703,0.058651023,0.058651023,0.566959906,0.215053773,0.097751703,0.078201365,0.205278587,0.283479958,0.566959906,0.14662756,0.254154444,0.215053773,0.263929605,0.752688169,0.244379282
0.107526886,0.058651023,0.058651023,0.586510229,0.224828935,0.097751703,0.078201365,0.195503416,0.273704791,0.557184744,0.156402731,0.244379282,0.215053773,0.263929605,0.772238493,0.244379282
0.107526886,0.068426199,0.058651023,0.6060606,0.234604096,0.107526886,0.078201365,0.205278587,0.273704791,0.576735067,0.156402731,0.244379282,0.205278587,0.263929605,0.752688169,0.254154444
0.107526886,0.068426199,0.058651023,0.615835762,0.234604096,0.107526886,0.087976542,0.205278587,0.273704791,0.566959906,0.14662756,0.234604096,0.205278587,0.273704791,0.752688169,0.244379282
0.107526886,0.068426199,0.068426199,0.625610924,0.224828935,0.117302048,0.087976542,0.205278587,0.263929605,0.586510229,0.14662756,0.224828935,0.205278587,0.273704791,0.762463331,0.254154444
0.107526886,0.068426199,0.068426199,0.654936409,0.215053773,0.136852396,0.078201365,0.205278587,0.263929605,0.576735067,0.14662756,0.215053773,0.205278587,0.283479958,0.782013655,0.244379282
0.097751703,0.068426199,0.068426199,0.68426199,0.205278587,0.14662756,0.078201365,0.215053773,0.283479958,0.557184744,0.14662756,0.205278587,0.195503416,0.273704791,0.772238493,0.244379282
0.107526886,0.068426199,0.068426199,0.733137846,0.205278587,0.166177917,0.087976542,0.224828935,0.283479958,0.53763442,0.14662756,0.205278587,0.215053773,0.273704791,0.801564026,0.244379282
0.097751703,0.058651023,0.058651023,0.752688169,0.195503416,0.195503416,0.087976542,0.224828935,0.283479958,0.53763442,0.166177917,0.215053773,0.205278587,0.263929605,0.811339188,0.234604096
0.097751703,0.058651023,0.068426199,0.821114349,0.195503416,0.205278587,0.078201365,0.234604096,0.283479958,0.53763442,0.156402731,0.205278587,0.195503416,0.263929605,0.782013655,0.234604096
0.107526886,0.058651023,0.068426199,0.830889511,0.205278587,0.195503416,0.078201365,0.224828935,0.273704791,0.527859211,0.156402731,0.205278587,0.195503416,0.254154444,0.791788864,0.224828935
0.097751703,0.058651023,0.068426199,0.9090909,0.195503416,0.195503416,0.087976542,0.205278587,0.263929605,0.508308887,0.156402731,0.205278587,0.195503416,0.254154444,0.772238493,0.224828935
0.107526886,0.048875852,0.078201365,0.899315739,0.195503416,0.185728254,0.087976542,0.205278587,0.263929605,0.508308887,0.156402731,0.205278587,0.205278587,0.244379282,0.742913008,0.215053773
0.107526886,0.058651023,0.078201365,0.879765415,0.195503416,0.185728254,0.087976542,0.205278587,0.263929605,0.547409582,0.156402731,0.205278587,0.195503416,0.244379282,0.723362684,0.215053773
0.107526886,0.048875852,0.078201365,0.85043993,0.195503416,0.185728254,0.097751703,0.195503416,0.263929605,0.547409582,0.156402731,0.195503416,0.195503416,0.244379282,0.723362684,0.224828935
0.107526886,0.058651023,0.087976542,0.811339188,0.185728254,0.195503416,0.097751703,0.195503416,0.263929605,0.518084049,0.156402731,0.205278587,0.185728254,0.244379282,0.713587475,0.224828935
0.107526886,0.058651023,0.078201365,0.791788864,0.195503416,0.195503416,0.087976542,0.195503416,0.254154444,0.508308887,0.156402731,0.215053773,0.195503416,0.244379282,0.703812313,0.234604096
0.107526886,0.048875852,0.078201365,0.772238493,0.195503416,0.195503416,0.087976542,0.185728254,0.254154444,0.508308887,0.156402731,0.205278587,0.205278587,0.254154444,0.703812313,0.234604096
0.117302048,0.048875852,0.087976542,0.742913008,0.195503416,0.195503416,0.087976542,0.205278587,0.244379282,0.527859211,0.156402731,0.195503416,0.195503416,0.263929605,0.694037151,0.234604096
0.117302048,0.058651023,0.087976542,0.703812313,0.205278587,0.195503416,0.087976542,0.224828935,0.234604096,0.518084049,0.156402731,0.195503416,0.215053773,0.263929605,0.674486828,0.224828935
0.127077222,0.058651023,0.087976542,0.68426199,0.215053773,0.215053773,0.087976542,0.263929605,0.234604096,0.498533726,0.156402731,0.195503416,0.205278587,0.273704791,0.694037151,0.224828935
0.136852396,0.058651023,0.087976542,0.674486828,0.234604096,0.224828935,0.097751703,0.263929605,0.224828935,0.478983355,0.14662756,0.195503416,0.205278587,0.263929605,0.674486828,0.234604096
0.136852396,0.058651023,0.087976542,0.674486828,0.234604096,0.234604096,0.087976542,0.283479958,0.224828935,0.488758564,0.14662756,0.185728254,0.205278587,0.263929605,0.674486828,0.234604096
0.136852396,0.068426199,0.078201365,0.654936409,0.244379282,0.244379282,0.087976542,0.273704791,0.224828935,0.469208193,0.14662756,0.185728254,0.205278587,0.254154444,0.723362684,0.224828935
0.127077222,0.058651023,0.078201365,0.645161247,0.244379282,0.234604096,0.097751703,0.263929605,0.224828935,0.478983355,0.156402731,0.195503416,0.205278587,0.254154444,0.713587475,0.244379282
0.127077222,0.058651023,0.078201365,0.645161247,0.224828935,0.244379282,0.097751703,0.283479958,0.215053773,0.488758564,0.156402731,0.205278587,0.205278587,0.244379282,0.733137846,0.234604096
0.127077222,0.058651023,0.087976542,0.625610924,0.224828935,0.254154444,0.097751703,0.293255119,0.215053773,0.478983355,0.166177917,0.195503416,0.195503416,0.244379282,0.733137846,0.234604096
0.136852396,0.058651023,0.078201365,0.625610924,0.224828935,0.254154444,0.107526886,0.312805462,0.215053773,0.498533726,0.156402731,0.195503416,0.195503416,0.254154444,0.752688169,0.254154444
0.127077222,0.058651023,0.078201365,0.615835762,0.215053773,0.244379282,0.097751703,0.312805462,0.215053773,0.508308887,0.166177917,0.195503416,0.195503416,0.234604096,0.742913008,0.254154444
0.127077222,0.068426199,0.087976542,0.6060606,0.215053773,0.234604096,0.097751703,0.312805462,0.205278587,0.498533726,0.166177917,0.205278587,0.195503416,0.254154444,0.733137846,0.263929605
0.127077222,0.078201365,0.087976542,0.586510229,0.224828935,0.234604096,0.097751703,0.322580624,0.205278587,0.478983355,0.175953078,0.205278587,0.195503416,0.263929605,0.723362684,0.263929605
0.117302048,0.078201365,0.097751703,0.576735067,0.215053773,0.234604096,0.097751703,0.351906157,0.205278587,0.478983355,0.166177917,0.205278587,0.185728254,0.273704791,0.694037151,0.254154444
0.127077222,0.078201365,0.107526886,0.576735067,0.224828935,0.234604096,0.087976542,0.391006832,0.215053773,0.469208193,0.175953078,0.205278587,0.185728254,0.283479958,0.68426199,0.244379282
0.127077222,0.078201365,0.107526886,0.586510229,0.215053773,0.234604096,0.097751703,0.400782013,0.215053773,0.469208193,0.175953078,0.205278587,0.195503416,0.283479958,0.68426199,0.244379282
0.117302048,0.097751703,0.107526886,0.586510229,0.215053773,0.244379282,0.097751703,0.400782013,0.205278587,0.459433031,0.175953078,0.215053773,0.205278587,0.273704791,0.664711666,0.254154444
0.117302048,0.097751703,0.107526886,0.6060606,0.224828935,0.244379282,0.097751703,0.400782013,0.205278587,0.459433031,0.175953078,0.224828935,0.215053773,0.263929605,0.635386086,0.244379282
0.127077222,0.097751703,0.117302048,0.596285439,0.224828935,0.234604096,0.097751703,0.38123167,0.205278587,0.459433031,0.166177917,0.215053773,0.244379282,0.263929605,0.645161247,0.254154444
0.127077222,0.097751703,0.117302048,0.586510229,0.224828935,0.234604096,0.087976542,0.371456504,0.195503416,0.488758564,0.166177917,0.215053773,0.244379282,0.273704791,0.68426199,0.254154444
0.127077222,0.097751703,0.127077222,0.566959906,0.224828935,0.234604096,0.087976542,0.351906157,0.205278587,0.488758564,0.166177917,0.215053773,0.244379282,0.3030303,0.674486828,0.244379282
0.127077222,0.097751703,0.117302048,0.547409582,0.224828935,0.215053773,0.097751703,0.342130995,0.205278587,0.508308887,0.166177917,0.215053773,0.244379282,0.293255119,0.664711666,0.244379282
0.136852396,0.087976542,0.117302048,0.527859211,0.224828935,0.215053773,0.097751703,0.332355833,0.195503416,0.498533726,0.156402731,0.215053773,0.234604096,0.283479958,0.68426199,0.234604096
0.14662756,0.097751703,0.107526886,0.508308887,0.215053773,0.215053773,0.097751703,0.322580624,0.195503416,0.478983355,0.156402731,0.215053773,0.234604096,0.283479958,0.68426199,0.234604096
0.175953078,0.107526886,0.117302048,0.498533726,0.215053773,0.215053773,0.097751703,0.312805462,0.195503416,0.469208193,0.156402731,0.215053773,0.234604096,0.283479958,0.703812313,0.254154444
0.215053773,0.107526886,0.117302048,0.478983355,0.215053773,0.215053773,0.087976542,0.3030303,0.185728254,0.449657869,0.175953078,0.215053773,0.234604096,0.283479958,0.723362684,0.254154444
0.244379282,0.107526886,0.117302048,0.459433031,0.224828935,0.215053773,0.087976542,0.283479958,0.185728254,0.459433031,0.185728254,0.215053773,0.234604096,0.273704791,0.742913008,0.263929605
0.273704791,0.097751703,0.117302048,0.449657869,0.234604096,0.254154444,0.087976542,0.273704791,0.185728254,0.469208193,0.185728254,0.205278587,0.224828935,0.273704791,0.723362684,0.273704791
0.322580624,0.097751703,0.117302048,0.439882708,0.234604096,0.254154444,0.087976542,0.263929605,0.185728254,0.459433031,0.195503416,0.195503416,0.234604096,0.263929605,0.713587475,0.283479958
0.342130995,0.097751703,0.117302048,0.449657869,0.244379282,0.254154444,0.087976542,0.263929605,0.195503416,0.459433031,0.205278587,0.195503416,0.244379282,0.263929605,0.742913008,0.273704791
0.38123167,0.087976542,0.117302048,0.420332336,0.254154444,0.244379282,0.097751703,0.254154444,0.205278587,0.449657869,0.195503416,0.195503416,0.244379282,0.263929605,0.752688169,0.293255119
0.391006832,0.097751703,0.107526886,0.410557175,0.254154444,0.254154444,0.097751703,0.244379282,0.205278587,0.449657869,0.205278587,0.195503416,0.244379282,0.273704791,0.782013655,0.283479958
0.410557175,0.087976542,0.107526886,0.391006832,0.244379282,0.263929605,0.117302048,0.234604096,0.205278587,0.469208193,0.234604096,0.195503416,0.254154444,0.293255119,0.782013655,0.283479958
0.449657869,0.087976542,0.107526886,0.38123167,0.244379282,0.263929605,0.117302048,0.234604096,0.195503416,0.488758564,0.234604096,0.195503416,0.254154444,0.342130995,0.772238493,0.293255119
0.459433031,0.087976542,0.117302048,0.371456504,0.244379282,0.263929605,0.107526886,0.244379282,0.185728254,0.478983355,0.224828935,0.195503416,0.273704791,0.351906157,0.752688169,0.283479958
0.459433031,0.078201365,0.107526886,0.371456504,0.244379282,0.263929605,0.107526886,0.234604096,0.185728254,0.488758564,0.224828935,0.195503416,0.254154444,0.342130995,0.742913008,0.273704791
0.449657869,0.087976542,0.107526886,0.371456504,0.234604096,0.244379282,0.117302048,0.224828935,0.175953078,0.508308887,0.224828935,0.195503416,0.244379282,0.342130995,0.733137846,0.263929605
0.449657869,0.087976542,0.107526886,0.351906157,0.234604096,0.254154444,0.107526886,0.224828935,0.175953078,0.508308887,0.254154444,0.205278587,0.244379282,0.332355833,0.713587475,0.273704791
0.439882708,0.097751703,0.107526886,0.332355833,0.244379282,0.254154444,0.107526886,0.215053773,0.185728254,0.498533726,0.263929605,0.215053773,0.224828935,0.312805462,0.694037151,0.273704791
0.420332336,0.097751703,0.107526886,0.322580624,0.244379282,0.263929605,0.097751703,0.215053773,0.175953078,0.498533726,0.283479958,0.224828935,0.224828935,0.3030303,0.703812313,0.293255119
0.410557175,0.097751703,0.107526886,0.322580624,0.244379282,0.273704791,0.107526886,0.215053773,0.185728254,0.508308887,0.273704791,0.224828935,0.215053773,0.3030303,0.713587475,0.283479958
0.391006832,0.087976542,0.107526886,0.322580624,0.234604096,0.312805462,0.107526886,0.215053773,0.175953078,0.498533726,0.273704791,0.215053773,0.215053773,0.293255119,0.752688169,0.283479958
0.371456504,0.087976542,0.117302048,0.332355833,0.234604096,0.332355833,0.097751703,0.215053773,0.175953078,0.488758564,0.273704791,0.215053773,0.205278587,0.293255119,0.733137846,0.283479958
0.351906157,0.107526886,0.117302048,0.322580624,0.224828935,0.312805462,0.097751703,0.195503416,0.175953078,0.488758564,0.293255119,0.205278587,0.205278587,0.293255119,0.713587475,0.3030303
0.342130995,0.127077222,0.117302048,0.312805462,0.234604096,0.3030303,0.097751703,0.185728254,0.166177917,0.469208193,0.283479958,0.195503416,0.215053773,0.283479958,0.703812313,0.312805462
0.322580624,0.117302048,0.117302048,0.312805462,0.224828935,0.312805462,0.117302048,0.175953078,0.166177917,0.459433031,0.312805462,0.195503416,0.224828935,0.273704791,0.674486828,0.312805462
0.312805462,0.117302048,0.127077222,0.3030303,0.215053773,0.3030303,0.117302048,0.175953078,0.166177917,0.439882708,0.391006832,0.185728254,0.234604096,0.283479958,0.645161247,0.3030303
0.293255119,0.117302048,0.127077222,0.293255119,0.224828935,0.293255119,0.117302048,0.185728254,0.175953078,0.430107546,0.410557175,0.185728254,0.234604096,0.283479958,0.654936409,0.3030303
0.283479958,0.127077222,0.127077222,0.283479958,0.224828935,0.322580624,0.117302048,0.185728254,0.175953078,0.439882708,0.430107546,0.185728254,0.215053773,0.293255119,0.635386086,0.3030303
0.283479958,0.127077222,0.127077222,0.273704791,0.215053773,0.322580624,0.107526886,0.205278587,0.175953078,0.469208193,0.449657869,0.195503416,0.215053773,0.293255119,0.615835762,0.293255119
0.273704791,0.127077222,0.127077222,0.263929605,0.205278587,0.342130995,0.107526886,0.195503416,0.175953078,0.459433031,0.459433031,0.195503416,0.205278587,0.293255119,0.625610924,0.3030303
0.263929605,0.127077222,0.127077222,0.263929605,0.205278587,0.342130995,0.107526886,0.195503416,0.175953078,0.449657869,0.469208193,0.215053773,0.205278587,0.283479958,0.615835762,0.283479958
0.244379282,0.117302048,0.136852396,0.273704791,0.224828935,0.371456504,0.097751703,0.185728254,0.185728254,0.478983355,0.449657869,0.205278587,0.195503416,0.283479958,0.596285439,0.273704791
0.234604096,0.117302048,0.136852396,0.263929605,0.224828935,0.38123167,0.097751703,0.185728254,0.185728254,0.498533726,0.459433031,0.195503416,0.195503416,0.283479958,0.576735067,0.263929605
0.234604096,0.107526886,0.136852396,0.254154444,0.224828935,0.361681342,0.107526886,0.175953078,0.195503416,0.478983355,0.469208193,0.195503416,0.195503416,0.293255119,0.596285439,0.273704791
0.224828935,0.107526886,0.136852396,0.244379282,0.234604096,0.351906157,0.097751703,0.166177917,0.205278587,0.469208193,0.478983355,0.195503416,0.195503416,0.293255119,0.635386086,0.273704791
0.215053773,0.107526886,0.136852396,0.234604096,0.215053773,0.332355833,0.107526886,0.166177917,0.215053773,0.478983355,0.488758564,0.205278587,0.195503416,0.293255119,0.635386086,0.273704791
0.215053773,0.107526886,0.136852396,0.224828935,0.215053773,0.332355833,0.097751703,0.166177917,0.215053773,0.459433031,0.478983355,0.195503416,0.195503416,0.293255119,0.6060606,0.273704791
0.215053773,0.097751703,0.136852396,0.205278587,0.215053773,0.322580624,0.107526886,0.166177917,0.205278587,0.459433031,0.478983355,0.195503416,0.195503416,0.293255119,0.635386086,0.273704791
0.205278587,0.097751703,0.136852396,0.205278587,0.205278587,0.3030303,0.107526886,0.166177917,0.205278587,0.498533726,0.469208193,0.195503416,0.195503416,0.283479958,0.645161247,0.273704791
0.215053773,0.087976542,0.136852396,0.195503416,0.205278587,0.293255119,0.097751703,0.166177917,0.205278587,0.488758564,0.459433031,0.195503416,0.215053773,0.273704791,0.645161247,0.254154444
0.205278587,0.087976542,0.14662756,0.195503416,0.195503416,0.283479958,0.097751703,0.156402731,0.195503416,0.469208193,0.478983355,0.185728254,0.205278587,0.273704791,0.654936409,0.254154444
0.195503416,0.087976542,0.136852396,0.185728254,0.205278587,0.273704791,0.097751703,0.166177917,0.195503416,0.459433031,0.498533726,0.185728254,0.195503416,0.263929605,0.664711666,0.254154444
0.195503416,0.107526886,0.14662756,0.175953078,0.195503416,0.263929605,0.097751703,0.166177917,0.185728254,0.449657869,0.508308887,0.195503416,0.195503416,0.263929605,0.694037151,0.254154444
0.195503416,0.107526886,0.14662756,0.166177917,0.205278587,0.263929605,0.097751703,0.166177917,0.195503416,0.430107546,0.518084049,0.195503416,0.195503416,0.263929605,0.664711666,0.273704791
0.185728254,0.097751703,0.14662756,0.175953078,0.195503416,0.263929605,0.097751703,0.166177917,0.205278587,0.410557175,0.557184744,0.195503416,0.195503416,0.273704791,0.68426199,0.263929605
0.185728254,0.087976542,0.14662756,0.175953078,0.195503416,0.254154444,0.097751703,0.166177917,0.215053773,0.400782013,0.547409582,0.205278587,0.185728254,0.283479958,0.68426199,0.254154444
0.195503416,0.087976542,0.14662756,0.166177917,0.195503416,0.254154444,0.087976542,0.166177917,0.215053773,0.38123167,0.547409582,0.205278587,0.185728254,0.273704791,0.742913008,0.244379282
0.205278587,0.087976542,0.14662756,0.175953078,0.185728254,0.254154444,0.087976542,0.156402731,0.215053773,0.391006832,0.53763442,0.205278587,0.185728254,0.273704791,0.742913008,0.263929605
0.205278587,0.097751703,0.14662756,0.166177917,0.195503416,0.254154444,0.087976542,0.166177917,0.205278587,0.410557175,0.576735067,0.205278587,0.185728254,0.283479958,0.772238493,0.263929605
0.215053773,0.097751703,0.136852396,0.156402731,0.185728254,0.244379282,0.087976542,0.156402731,0.205278587,0.410557175,0.596285439,0.224828935,0.195503416,0.283479958,0.840664673,0.273704791
0.215053773,0.087976542,0.136852396,0.156402731,0.185728254,0.244379282,0.097751703,0.156402731,0.205278587,0.391006832,0.566959906,0.224828935,0.195503416,0.273704791,0.869990253,0.263929605
0.215053773,0.087976542,0.14662756,0.156402731,0.185728254,0.234604096,0.097751703,0.14662756,0.205278587,0.38123167,0.557184744,0.234604096,0.195503416,0.263929605,0.869990253,0.263929605
0.205278587,0.087976542,0.136852396,0.156402731,0.185728254,0.244379282,0.097751703,0.156402731,0.195503416,0.371456504,0.557184744,0.234604096,0.185728254,0.263929605,0.928641224,0.263929605
0.215053773,0.087976542,0.136852396,0.156402731,0.185728254,0.234604096,0.097751703,0.156402731,0.195503416,0.361681342,0.596285439,0.244379282,0.185728254,0.273704791,0.967741871,0.254154444
0.205278587,0.078201365,0.127077222,0.156402731,0.195503416,0.244379282,0.087976542,0.156402731,0.195503416,0.342130995,0.586510229,0.254154444,0.185728254,0.254154444,1.006842613,0.244379282
0.195503416,0.078201365,0.127077222,0.175953078,0.195503416,0.234604096,0.097751703,0.156402731,0.205278587,0.342130995,0.635386086,0.254154444,0.175953078,0.263929605,1.006842613,0.234604096
0.185728254,0.078201365,0.127077222,0.175953078,0.205278587,0.254154444,0.097751703,0.156402731,0.195503416,0.332355833,0.68426199,0.254154444,0.185728254,0.254154444,0.997067451,0.234604096
0.175953078,0.078201365,0.117302048,0.166177917,0.205278587,0.254154444,0.087976542,0.14662756,0.185728254,0.332355833,0.654936409,0.273704791,0.185728254,0.254154444,0.977517128,0.234604096
0.175953078,0.078201365,0.117302048,0.156402731,0.215053773,0.263929605,0.087976542,0.14662756,0.185728254,0.322580624,0.654936409,0.263929605,0.185728254,0.244379282,0.957966709,0.234604096
0.166177917,0.078201365,0.117302048,0.156402731,0.234604096,0.273704791,0.097751703,0.14662756,0.185728254,0.312805462,0.635386086,0.273704791,0.185728254,0.244379282,1.016617775,0.224828935
0.166177917,0.078201365,0.117302048,0.14662756,0.234604096,0.273704791,0.097751703,0.14662756,0.185728254,0.322580624,0.615835762,0.263929605,0.185728254,0.234604096,1.036168098,0.224828935
0.156402731,0.078201365,0.107526886,0.14662756,0.254154444,0.273704791,0.087976542,0.156402731,0.175953078,0.312805462,0.615835762,0.273704791,0.185728254,0.234604096,1.016617775,0.244379282
0.156402731,0.078201365,0.107526886,0.156402731,0.263929605,0.263929605,0.087976542,0.156402731,0.195503416,0.322580624,0.6060606,0.273704791,0.195503416,0.244379282,0.997067451,0.234604096
0.14662756,0.078201365,0.107526886,0.156402731,0.283479958,0.254154444,0.087976542,0.166177917,0.195503416,0.312805462,0.576735067,0.273704791,0.185728254,0.234604096,0.957966709,0.244379282
0.14662756,0.078201365,0.107526886,0.14662756,0.283479958,0.263929605,0.078201365,0.156402731,0.195503416,0.312805462,0.576735067,0.273704791,0.195503416,0.234604096,0.967741871,0.244379282
0.136852396,0.078201365,0.117302048,0.14662756,0.273704791,0.263929605,0.078201365,0.156402731,0.195503416,0.312805462,0.586510229,0.263929605,0.205278587,0.224828935,0.98729229,0.244379282
0.136852396,0.068426199,0.117302048,0.136852396,0.273704791,0.254154444,0.078201365,0.156402731,0.185728254,0.312805462,0.625610924,0.273704791,0.205278587,0.224828935,1.016617775,0.244379282
0.127077222,0.068426199,0.107526886,0.136852396,0.263929605,0.263929605,0.078201365,0.166177917,0.185728254,0.312805462,0.635386086,0.263929605,0.205278587,0.234604096,1.055718422,0.244379282
0.127077222,0.068426199,0.107526886,0.136852396,0.3030303,0.263929605,0.087976542,0.166177917,0.195503416,0.312805462,0.635386086,0.273704791,0.205278587,0.244379282,1.055718422,0.244379282
0.117302048,0.058651023,0.097751703,0.127077222,0.312805462,0.273704791,0.087976542,0.175953078,0.195503416,0.293255119,0.664711666,0.273704791,0.215053773,0.244379282,1.065493703,0.244379282
0.117302048,0.058651023,0.107526886,0.14662756,0.332355833,0.273704791,0.078201365,0.185728254,0.195503416,0.283479958,0.674486828,0.273704791,0.224828935,0.234604096,1.055718422,0.244379282
0.117302048,0.058651023,0.107526886,0.156402731,0.342130995,0.273704791,0.078201365,0.185728254,0.205278587,0.293255119,0.654936409,0.273704791,0.224828935,0.224828935,1.036168098,0.244379282
0.117302048,0.048875852,0.107526886,0.166177917,0.351906157,0.263929605,0.078201365,0.195503416,0.205278587,0.312805462,0.654936409,0.263929605,0.215053773,0.234604096,1.036168098,0.234604096
0.107526886,0.048875852,0.097751703,0.195503416,0.351906157,0.263929605,0.078201365,0.185728254,0.205278587,0.322580624,0.664711666,0.273704791,0.215053773,0.224828935,1.036168098,0.234604096
0.107526886,0.048875852,0.097751703,0.215053773,0.351906157,0.263929605,0.078201365,0.175953078,0.205278587,0.332355833,0.68426199,0.283479958,0.215053773,0.224828935,1.016617775,0.234604096
0.107526886,0.048875852,0.097751703,0.205278587,0.351906157,0.263929605,0.078201365,0.175953078,0.205278587,0.342130995,0.68426199,0.273704791,0.215053773,0.224828935,0.977517128,0.234604096
0.107526886,0.048875852,0.097751703,0.205278587,0.332355833,0.263929605,0.078201365,0.166177917,0.195503416,0.332355833,0.694037151,0.283479958,0.215053773,0.215053773,0.938416386,0.234604096
0.117302048,0.039100683,0.107526886,0.205278587,0.322580624,0.254154444,0.078201365,0.175953078,0.195503416,0.322580624,0.674486828,0.283479958,0.205278587,0.215053773,0.9090909,0.234604096
0.117302048,0.039100683,0.107526886,0.215053773,0.322580624,0.254154444,0.078201365,0.175953078,0.195503416,0.312805462,0.654936409,0.273704791,0.205278587,0.215053773,0.9090909,0.244379282
0.117302048,0.039100683,0.107526886,0.234604096,0.322580624,0.263929605,0.078201365,0.175953078,0.185728254,0.312805462,0.654936409,0.273704791,0.195503416,0.205278587,0.889540577,0.244379282
0.117302048,0.039100683,0.097751703,0.244379282,0.312805462,0.283479958,0.097751703,0.175953078,0.185728254,0.312805462,0.654936409,0.273704791,0.195503416,0.224828935,0.840664673,0.254154444
0.127077222,0.039100683,0.097751703,0.254154444,0.3030303,0.283479958,0.087976542,0.185728254,0.185728254,0.322580624,0.645161247,0.273704791,0.205278587,0.215053773,0.821114349,0.254154444
0.136852396,0.039100683,0.107526886,0.263929605,0.322580624,0.273704791,0.087976542,0.175953078,0.195503416,0.312805462,0.694037151,0.273704791,0.205278587,0.215053773,0.801564026,0.244379282
0.136852396,0.039100683,0.107526886,0.263929605,0.342130995,0.283479958,0.087976542,0.175953078,0.185728254,0.3030303,0.762463331,0.263929605,0.195503416,0.224828935,0.830889511,0.244379282
0.14662756,0.039100683,0.117302048,0.263929605,0.351906157,0.283479958,0.097751703,0.166177917,0.175953078,0.293255119,0.879765415,0.263929605,0.195503416,0.224828935,0.801564026,0.244379282
0.156402731,0.039100683,0.107526886,0.254154444,0.361681342,0.283479958,0.097751703,0.156402731,0.175953078,0.293255119,0.899315739,0.254154444,0.195503416,0.215053773,0.772238493,0.244379282
0.166177917,0.039100683,0.097751703,0.254154444,0.371456504,0.273704791,0.087976542,0.166177917,0.175953078,0.293255119,0.889540577,0.254154444,0.185728254,0.215053773,0.733137846,0.244379282
0.175953078,0.039100683,0.097751703,0.244379282,0.351906157,0.283479958,0.087976542,0.156402731,0.175953078,0.293255119,0.899315739,0.244379282,0.185728254,0.205278587,0.694037151,0.254154444
0.185728254,0.039100683,0.107526886,0.254154444,0.342130995,0.273704791,0.078201365,0.156402731,0.166177917,0.283479958,0.967741871,0.244379282,0.195503416,0.205278587,0.68426199,0.263929605
0.185728254,0.029325512,0.107526886,0.263929605,0.342130995,0.293255119,0.078201365,0.14662756,0.166177917,0.283479958,0.948191547,0.244379282,0.195503416,0.215053773,0.654936409,0.263929605
0.175953078,0.029325512,0.107526886,0.273704791,0.332355833,0.3030303,0.078201365,0.156402731,0.156402731,0.283479958,0.918866062,0.254154444,0.185728254,0.215053773,0.625610924,0.263929605
0.175953078,0.029325512,0.107526886,0.283479958,0.312805462,0.3030303,0.078201365,0.14662756,0.156402731,0.283479958,0.889540577,0.263929605,0.185728254,0.215053773,0.6060606,0.273704791
0.185728254,0.029325512,0.097751703,0.283479958,0.3030303,0.283479958,0.078201365,0.14662756,0.156402731,0.283479958,0.899315739,0.254154444,0.185728254,0.215053773,0.586510229,0.273704791
0.185728254,0.029325512,0.097751703,0.273704791,0.312805462,0.273704791,0.087976542,0.136852396,0.156402731,0.273704791,0.869990253,0.263929605,0.175953078,0.224828935,0.566959906,0.263929605
0.185728254,0.029325512,0.087976542,0.283479958,0.312805462,0.273704791,0.087976542,0.136852396,0.156402731,0.263929605,0.830889511,0.254154444,0.185728254,0.234604096,0.547409582,0.263929605
0.175953078,0.029325512,0.087976542,0.273704791,0.312805462,0.3030303,0.078201365,0.136852396,0.166177917,0.273704791,0.879765415,0.263929605,0.185728254,0.224828935,0.527859211,0.263929605
0.166177917,0.029325512,0.087976542,0.273704791,0.312805462,0.3030303,0.078201365,0.136852396,0.156402731,0.273704791,1.026392937,0.254154444,0.185728254,0.224828935,0.527859211,0.263929605
0.156402731,0.029325512,0.087976542,0.283479958,0.293255119,0.322580624,0.078201365,0.14662756,0.166177917,0.283479958,1.026392937,0.244379282,0.195503416,0.234604096,0.518084049,0.244379282
0.156402731,0.029325512,0.087976542,0.273704791,0.283479958,0.322580624,0.078201365,0.136852396,0.156402731,0.283479958,1.04594326,0.234604096,0.185728254,0.234604096,0.498533726,0.244379282
0.156402731,0.029325512,0.078201365,0.273704791,0.283479958,0.332355833,0.078201365,0.14662756,0.156402731,0.263929605,1.026392937,0.254154444,0.175953078,0.224828935,0.478983355,0.234604096
0.14662756,0.029325512,0.087976542,0.283479958,0.273704791,0.361681342,0.078201365,0.136852396,0.166177917,0.263929605,1.036168098,0.263929605,0.175953078,0.224828935,0.469208193,0.244379282
0.14662756,0.039100683,0.087976542,0.273704791,0.273704791,0.38123167,0.068426199,0.136852396,0.166177917,0.273704791,0.997067451,0.263929605,0.175953078,0.224828935,0.449657869,0.244379282
