0.234604096,0.547409582,0.527859211,0.234604096
1.28054738,1.290322542,1.036168098,0.948191547
1.759530783,1.329423308,1.036168098,1.006842613
1.984359741,1.28054738,0.997067451,0.977517128
2.062561035,1.231671572,0.957966709,0.938416386
2.082111359,1.16324532,0.928641224,0.899315739
2.072336197,1.124144673,0.899315739,0.869990253
2.003910065,1.065493703,0.860215092,0.830889511
1.915933514,1.016617775,0.830889511,0.791788864
1.818181896,0.977517128,0.801564026,0.772238493
1.730205297,0.928641224,0.782013655,0.742913008
1.642228699,0.899315739,0.762463331,0.713587475
1.564027309,0.860215092,0.733137846,0.674486828
1.476050854,0.821114349,0.713587475,0.654936409
1.407624626,0.772238493,0.694037151,0.625610924
1.33919847,0.742913008,0.694037151,0.6060606
1.28054738,0.713587475,0.674486828,0.586510229
1.22189641,0.68426199,0.654936409,0.566959906
1.153470159,0.654936409,0.654936409,0.53763442
1.094819183,0.625610924,0.635386086,0.508308887
1.04594326,0.6060606,0.625610924,0.488758564
0.98729229,0.586510229,0.6060606,0.478983355
0.938416386,0.557184744,0.596285439,0.459433031
0.9090909,0.53763442,0.586510229,0.439882708
0.879765415,0.508308887,0.576735067,0.430107546
0.869990253,0.488758564,0.557184744,0.420332336
0.860215092,0.469208193,0.53763442,0.400782013
0.860215092,0.439882708,0.508308887,0.38123167
0.860215092,0.420332336,0.498533726,0.371456504
0.860215092,0.400782013,0.498533726,0.361681342
0.830889511,0.400782013,0.488758564,0.342130995
0.801564026,0.38123167,0.469208193,0.342130995
0.762463331,0.38123167,0.469208193,0.332355833
0.733137846,0.371456504,0.459433031,0.312805462
0.703812313,0.361681342,0.459433031,0.3030303
0.674486828,0.351906157,0.449657869,0.293255119
0.645161247,0.342130995,0.439882708,0.273704791
0.615835762,0.322580624,0.420332336,0.273704791
0.596285439,0.312805462,0.400782013,0.254154444
0.566959906,0.293255119,0.400782013,0.254154444
0.566959906,0.283479958,0.400782013,0.254154444
0.566959906,0.273704791,0.391006832,0.244379282
0.557184744,0.254154444,0.38123167,0.234604096
0.557184744,0.244379282,0.391006832,0.224828935
0.557184744,0.234604096,0.400782013,0.215053773
0.557184744,0.224828935,0.410557175,0.205278587
0.557184744,0.215053773,0.391006832,0.195503416
0.576735067,0.205278587,0.38123167,0.195503416
0.576735067,0.195503416,0.371456504,0.175953078
0.557184744,0.195503416,0.361681342,0.166177917
0.527859211,0.185728254,0.361681342,0.156402731
0.508308887,0.175953078,0.371456504,0.156402731
0.488758564,0.166177917,0.371456504,0.14662756
0.478983355,0.166177917,0.391006832,0.14662756
0.459433031,0.156402731,0.410557175,0.136852396
0.439882708,0.14662756,0.410557175,0.136852396
0.420332336,0.14662756,0.430107546,0.127077222
0.410557175,0.136852396,0.449657869,0.127077222
0.391006832,0.136852396,0.439882708,0.127077222
0.371456504,0.127077222,0.449657869,0.127077222
0.361681342,0.127077222,0.439882708,0.127077222
0.361681342,0.127077222,0.439882708,0.127077222
0.361681342,0.117302048,0.430107546,0.117302048
0.361681342,0.117302048,0.430107546,0.117302048
0.361681342,0.107526886,0.430107546,0.117302048
0.351906157,0.107526886,0.439882708,0.107526886
0.342130995,0.107526886,0.459433031,0.107526886
0.332355833,0.097751703,0.469208193,0.097751703
0.332355833,0.107526886,0.478983355,0.097751703
0.332355833,0.097751703,0.498533726,0.097751703
0.322580624,0.097751703,0.498533726,0.097751703
0.3030303,0.097751703,0.498533726,0.097751703
0.293255119,0.097751703,0.498533726,0.097751703
0.283479958,0.097751703,0.518084049,0.097751703
0.283479958,0.107526886,0.518084049,0.097751703
0.273704791,0.097751703,0.508308887,0.097751703
0.283479958,0.097751703,0.518084049,0.097751703
0.273704791,0.097751703,0.518084049,0.087976542
0.273704791,0.107526886,0.518084049,0.087976542
0.263929605,0.097751703,0.518084049,0.087976542
0.254154444,0.107526886,0.518084049,0.087976542
0.244379282,0.107526886,0.508308887,0.087976542
0.244379282,0.107526886,0.478983355,0.087976542
0.244379282,0.107526886,0.469208193,0.087976542
0.244379282,0.107526886,0.459433031,0.078201365
0.254154444,0.107526886,0.469208193,0.087976542
0.254154444,0.097751703,0.469208193,0.087976542
0.263929605,0.107526886,0.449657869,0.097751703
0.293255119,0.097751703,0.469208193,0.087976542
0.332355833,0.107526886,0.469208193,0.087976542
0.342130995,0.097751703,0.459433031,0.087976542
0.361681342,0.097751703,0.459433031,0.087976542
0.351906157,0.097751703,0.449657869,0.087976542
0.342130995,0.087976542,0.459433031,0.087976542
0.332355833,0.087976542,0.449657869,0.087976542
0.322580624,0.087976542,0.430107546,0.087976542
0.312805462,0.087976542,0.430107546,0.087976542
0.312805462,0.087976542,0.430107546,0.078201365
0.332355833,0.097751703,0.449657869,0.078201365
0.361681342,0.107526886,0.449657869,0.078201365
0.38123167,0.107526886,0.430107546,0.078201365
0.420332336,0.117302048,0.430107546,0.087976542
0.439882708,0.107526886,0.420332336,0.078201365
0.469208193,0.097751703,0.420332336,0.078201365
0.498533726,0.097751703,0.410557175,0.078201365
0.518084049,0.097751703,0.410557175,0.078201365
0.527859211,0.097751703,0.400782013,0.068426199
0.53763442,0.097751703,0.410557175,0.078201365
0.53763442,0.097751703,0.400782013,0.078201365
0.527859211,0.087976542,0.400782013,0.078201365
0.518084049,0.087976542,0.410557175,0.078201365
0.508308887,0.087976542,0.400782013,0.078201365
0.488758564,0.087976542,0.400782013,0.087976542
0.469208193,0.097751703,0.400782013,0.078201365
0.449657869,0.097751703,0.400782013,0.078201365
0.430107546,0.097751703,0.38123167,0.078201365
0.420332336,0.097751703,0.371456504,0.087976542
0.400782013,0.097751703,0.351906157,0.087976542
0.400782013,0.097751703,0.351906157,0.097751703
0.391006832,0.097751703,0.342130995,0.097751703
0.391006832,0.107526886,0.332355833,0.097751703
0.400782013,0.097751703,0.322580624,0.107526886
0.410557175,0.107526886,0.312805462,0.107526886
0.449657869,0.097751703,0.3030303,0.107526886
0.508308887,0.097751703,0.293255119,0.127077222
0.566959906,0.097751703,0.283479958,0.127077222
0.615835762,0.097751703,0.273704791,0.127077222
0.625610924,0.087976542,0.263929605,0.127077222
0.654936409,0.087976542,0.263929605,0.127077222
0.674486828,0.087976542,0.254154444,0.117302048
0.68426199,0.087976542,0.234604096,0.117302048
0.68426199,0.087976542,0.234604096,0.127077222
0.664711666,0.087976542,0.224828935,0.117302048
0.625610924,0.087976542,0.215053773,0.117302048
0.596285439,0.087976542,0.215053773,0.107526886
0.566959906,0.087976542,0.215053773,0.107526886
0.53763442,0.087976542,0.205278587,0.107526886
0.518084049,0.087976542,0.205278587,0.107526886
0.508308887,0.087976542,0.195503416,0.097751703
0.488758564,0.087976542,0.195503416,0.097751703
0.469208193,0.087976542,0.185728254,0.097751703
0.449657869,0.087976542,0.185728254,0.097751703
0.430107546,0.087976542,0.175953078,0.097751703
0.410557175,0.087976542,0.166177917,0.097751703
0.391006832,0.078201365,0.166177917,0.097751703
0.371456504,0.078201365,0.166177917,0.097751703
0.351906157,0.087976542,0.156402731,0.087976542
0.342130995,0.078201365,0.156402731,0.087976542
0.332355833,0.078201365,0.156402731,0.087976542
0.312805462,0.078201365,0.14662756,0.078201365
0.312805462,0.078201365,0.14662756,0.087976542
0.293255119,0.078201365,0.136852396,0.087976542
0.273704791,0.078201365,0.136852396,0.087976542
0.263929605,0.087976542,0.136852396,0.087976542
0.244379282,0.078201365,0.127077222,0.087976542
0.244379282,0.078201365,0.127077222,0.087976542
0.224828935,0.078201365,0.117302048,0.097751703
0.224828935,0.078201365,0.127077222,0.107526886
0.215053773,0.078201365,0.117302048,0.097751703
0.205278587,0.078201365,0.117302048,0.087976542
0.195503416,0.078201365,0.117302048,0.087976542
0.185728254,0.078201365,0.127077222,0.087976542
0.175953078,0.078201365,0.127077222,0.087976542
0.166177917,0.078201365,0.117302048,0.087976542
0.166177917,0.078201365,0.117302048,0.087976542
0.156402731,0.087976542,0.117302048,0.087976542
0.156402731,0.078201365,0.117302048,0.087976542
0.14662756,0.078201365,0.117302048,0.097751703
0.136852396,0.078201365,0.127077222,0.097751703
0.136852396,0.078201365,0.127077222,0.097751703
0.127077222,0.078201365,0.127077222,0.097751703
0.117302048,0.078201365,0.117302048,0.087976542
0.117302048,0.078201365,0.117302048,0.087976542
0.107526886,0.078201365,0.107526886,0.097751703
0.107526886,0.078201365,0.107526886,0.097751703
0.107526886,0.078201365,0.107526886,0.107526886
0.107526886,0.078201365,0.097751703,0.107526886
0.107526886,0.078201365,0.097751703,0.097751703
0.107526886,0.078201365,0.097751703,0.097751703
0.107526886,0.078201365,0.087976542,0.097751703
0.107526886,0.078201365,0.087976542,0.107526886
0.107526886,0.078201365,0.097751703,0.107526886
0.107526886,0.068426199,0.087976542,0.097751703
0.107526886,0.068426199,0.087976542,0.097751703
0.097751703,0.068426199,0.087976542,0.097751703
0.097751703,0.068426199,0.087976542,0.097751703
0.087976542,0.068426199,0.087976542,0.107526886
0.087976542,0.068426199,0.097751703,0.107526886
0.087976542,0.068426199,0.087976542,0.107526886
0.097751703,0.068426199,0.087976542,0.107526886
0.087976542,0.058651023,0.087976542,0.107526886
0.097751703,0.068426199,0.078201365,0.107526886
0.097751703,0.068426199,0.078201365,0.117302048
0.097751703,0.068426199,0.087976542,0.117302048
0.097751703,0.058651023,0.097751703,0.117302048
0.097751703,0.058651023,0.107526886,0.107526886
0.087976542,0.068426199,0.117302048,0.107526886
0.087976542,0.058651023,0.136852396,0.097751703
0.087976542,0.058651023,0.14662756,0.097751703
0.087976542,0.058651023,0.156402731,0.097751703
0.097751703,0.058651023,0.175953078,0.097751703
0.087976542,0.058651023,0.185728254,0.087976542
0.097751703,0.058651023,0.195503416,0.087976542
0.097751703,0.058651023,0.215053773,0.087976542
0.097751703,0.058651023,0.234604096,0.078201365
0.107526886,0.058651023,0.244379282,0.078201365
0.107526886,0.058651023,0.254154444,0.087976542
0.107526886,0.058651023,0.254154444,0.087976542
0.117302048,0.058651023,0.263929605,0.078201365
0.117302048,0.058651023,0.263929605,0.087976542
0.117302048,0.058651023,0.254154444,0.078201365
0.117302048,0.058651023,0.244379282,0.078201365
0.117302048,0.058651023,0.254154444,0.078201365
0.117302048,0.058651023,0.254154444,0.078201365
0.117302048,0.048875852,0.244379282,0.078201365
0.117302048,0.048875852,0.244379282,0.078201365
0.107526886,0.048875852,0.244379282,0.078201365
0.107526886,0.058651023,0.234604096,0.078201365
0.107526886,0.058651023,0.234604096,0.078201365
0.107526886,0.058651023,0.224828935,0.078201365
0.097751703,0.058651023,0.244379282,0.078201365
0.107526886,0.058651023,0.234604096,0.068426199
0.097751703,0.058651023,0.224828935,0.078201365
0.097751703,0.058651023,0.224828935,0.068426199
0.097751703,0.058651023,0.215053773,0.068426199
0.097751703,0.058651023,0.205278587,0.068426199
0.097751703,0.058651023,0.215053773,0.068426199
0.097751703,0.058651023,0.205278587,0.068426199
0.097751703,0.048875852,0.205278587,0.078201365
0.097751703,0.048875852,0.195503416,0.078201365
0.087976542,0.058651023,0.185728254,0.078201365
0.087976542,0.048875852,0.185728254,0.078201365
0.097751703,0.048875852,0.175953078,0.068426199
0.087976542,0.058651023,0.175953078,0.068426199
0.087976542,0.058651023,0.166177917,0.068426199
0.087976542,0.058651023,0.156402731,0.068426199
0.078201365,0.058651023,0.156402731,0.068426199
0.078201365,0.058651023,0.156402731,0.058651023
0.078201365,0.048875852,0.14662756,0.058651023
0.078201365,0.048875852,0.14662756,0.058651023
0.078201365,0.048875852,0.14662756,0.058651023
0.078201365,0.048875852,0.136852396,0.058651023
0.078201365,0.048875852,0.136852396,0.068426199
0.078201365,0.058651023,0.136852396,0.068426199
0.078201365,0.048875852,0.136852396,0.068426199
0.078201365,0.048875852,0.127077222,0.058651023
0.078201365,0.048875852,0.127077222,0.068426199
0.078201365,0.048875852,0.127077222,0.068426199
0.068426199,0.048875852,0.117302048,0.078201365
0.068426199,0.048875852,0.117302048,0.068426199
0.068426199,0.058651023,0.117302048,0.068426199
0.068426199,0.048875852,0.117302048,0.068426199
0.068426199,0.048875852,0.117302048,0.068426199
0.068426199,0.048875852,0.117302048,0.068426199
0.068426199,0.058651023,0.117302048,0.078201365
0.068426199,0.048875852,0.117302048,0.068426199
0.068426199,0.048875852,0.127077222,0.068426199
0.068426199,0.048875852,0.127077222,0.068426199
0.068426199,0.048875852,0.117302048,0.068426199
0.068426199,0.048875852,0.117302048,0.068426199
0.068426199,0.048875852,0.117302048,0.068426199
0.068426199,0.048875852,0.127077222,0.068426199
0.068426199,0.048875852,0.127077222,0.068426199
0.078201365,0.058651023,0.127077222,0.068426199
0.078201365,0.048875852,0.127077222,0.068426199
0.078201365,0.048875852,0.136852396,0.068426199
0.078201365,0.058651023,0.136852396,0.068426199
0.078201365,0.058651023,0.136852396,0.068426199
0.078201365,0.048875852,0.136852396,0.068426199
0.078201365,0.058651023,0.127077222,0.068426199
0.078201365,0.058651023,0.127077222,0.068426199
0.078201365,0.058651023,0.127077222,0.068426199
0.078201365,0.058651023,0.127077222,0.068426199
0.078201365,0.058651023,0.127077222,0.068426199
0.078201365,0.058651023,0.127077222,0.078201365
0.078201365,0.058651023,0.127077222,0.078201365
0.078201365,0.068426199,0.127077222,0.068426199
0.078201365,0.068426199,0.136852396,0.078201365
0.078201365,0.078201365,0.136852396,0.078201365
0.068426199,0.078201365,0.127077222,0.078201365
0.068426199,0.087976542,0.136852396,0.087976542
0.068426199,0.087976542,0.136852396,0.087976542
0.068426199,0.107526886,0.127077222,0.087976542
0.068426199,0.117302048,0.127077222,0.087976542
0.068426199,0.117302048,0.136852396,0.087976542
0.068426199,0.117302048,0.127077222,0.087976542
0.068426199,0.117302048,0.127077222,0.087976542
0.068426199,0.117302048,0.127077222,0.087976542
0.068426199,0.136852396,0.127077222,0.078201365
0.068426199,0.136852396,0.127077222,0.078201365
0.068426199,0.14662756,0.127077222,0.078201365
0.068426199,0.14662756,0.127077222,0.078201365
0.078201365,0.156402731,0.127077222,0.078201365
0.078201365,0.156402731,0.136852396,0.078201365
0.078201365,0.166177917,0.14662756,0.068426199
0.078201365,0.175953078,0.136852396,0.068426199
0.078201365,0.175953078,0.136852396,0.068426199
0.078201365,0.175953078,0.136852396,0.068426199
0.078201365,0.175953078,0.14662756,0.068426199
0.068426199,0.185728254,0.136852396,0.068426199
0.068426199,0.185728254,0.136852396,0.078201365
0.068426199,0.185728254,0.14662756,0.068426199
0.068426199,0.195503416,0.136852396,0.068426199
0.058651023,0.195503416,0.136852396,0.068426199
0.058651023,0.195503416,0.136852396,0.068426199
0.058651023,0.195503416,0.127077222,0.078201365
0.058651023,0.205278587,0.127077222,0.078201365
0.048875852,0.215053773,0.117302048,0.078201365
0.048875852,0.205278587,0.117302048,0.078201365
0.048875852,0.215053773,0.117302048,0.078201365
0.048875852,0.215053773,0.117302048,0.078201365
0.039100683,0.215053773,0.127077222,0.078201365
0.039100683,0.215053773,0.117302048,0.078201365
0.039100683,0.205278587,0.117302048,0.078201365
0.048875852,0.205278587,0.107526886,0.078201365
0.039100683,0.205278587,0.107526886,0.078201365
0.048875852,0.195503416,0.107526886,0.078201365
0.048875852,0.195503416,0.117302048,0.078201365
0.048875852,0.185728254,0.107526886,0.078201365
0.048875852,0.185728254,0.117302048,0.078201365
0.058651023,0.185728254,0.117302048,0.078201365
0.058651023,0.185728254,0.117302048,0.078201365
0.058651023,0.175953078,0.117302048,0.087976542
0.058651023,0.166177917,0.117302048,0.097751703
0.058651023,0.166177917,0.117302048,0.117302048
0.058651023,0.166177917,0.107526886,0.117302048
0.058651023,0.156402731,0.107526886,0.117302048
0.058651023,0.14662756,0.107526886,0.107526886
0.058651023,0.136852396,0.107526886,0.117302048
0.058651023,0.136852396,0.107526886,0.107526886
0.058651023,0.127077222,0.107526886,0.107526886
0.068426199,0.127077222,0.107526886,0.117302048
0.068426199,0.117302048,0.107526886,0.117302048
0.068426199,0.117302048,0.107526886,0.117302048
0.068426199,0.117302048,0.097751703,0.117302048
0.068426199,0.107526886,0.097751703,0.127077222
0.068426199,0.107526886,0.097751703,0.127077222
0.068426199,0.097751703,0.097751703,0.127077222
0.068426199,0.097751703,0.097751703,0.117302048
0.068426199,0.097751703,0.097751703,0.127077222
0.068426199,0.097751703,0.097751703,0.127077222
0.068426199,0.097751703,0.087976542,0.127077222
0.068426199,0.087976542,0.087976542,0.127077222
0.068426199,0.087976542,0.097751703,0.136852396
0.068426199,0.097751703,0.087976542,0.136852396
0.068426199,0.087976542,0.097751703,0.156402731
0.068426199,0.087976542,0.097751703,0.156402731
0.068426199,0.087976542,0.097751703,0.156402731
0.068426199,0.087976542,0.097751703,0.156402731
0.068426199,0.087976542,0.097751703,0.14662756
0.068426199,0.087976542,0.097751703,0.14662756
0.068426199,0.087976542,0.097751703,0.14662756
0.068426199,0.078201365,0.097751703,0.14662756
0.068426199,0.078201365,0.087976542,0.136852396
0.068426199,0.087976542,0.087976542,0.127077222
0.068426199,0.078201365,0.087976542,0.127077222
0.068426199,0.078201365,0.097751703,0.127077222
0.078201365,0.078201365,0.107526886,0.117302048
0.078201365,0.068426199,0.097751703,0.117302048
0.078201365,0.068426199,0.097751703,0.127077222
0.078201365,0.068426199,0.097751703,0.127077222
0.078201365,0.068426199,0.097751703,0.117302048
0.078201365,0.068426199,0.107526886,0.127077222
0.087976542,0.068426199,0.107526886,0.117302048
0.087976542,0.068426199,0.097751703,0.117302048
0.087976542,0.068426199,0.107526886,0.117302048
0.078201365,0.058651023,0.097751703,0.117302048
0.078201365,0.068426199,0.097751703,0.117302048
0.078201365,0.058651023,0.097751703,0.127077222
0.078201365,0.058651023,0.097751703,0.14662756
0.078201365,0.058651023,0.097751703,0.14662756
0.078201365,0.058651023,0.097751703,0.14662756
0.078201365,0.058651023,0.097751703,0.14662756
0.068426199,0.058651023,0.097751703,0.14662756
0.068426199,0.058651023,0.097751703,0.156402731
0.068426199,0.058651023,0.097751703,0.156402731
0.058651023,0.058651023,0.107526886,0.156402731
0.068426199,0.058651023,0.097751703,0.156402731
0.068426199,0.058651023,0.107526886,0.166177917
0.058651023,0.058651023,0.097751703,0.166177917
0.058651023,0.068426199,0.097751703,0.175953078
0.058651023,0.058651023,0.097751703,0.175953078
0.058651023,0.058651023,0.097751703,0.195503416
0.058651023,0.058651023,0.107526886,0.205278587
0.058651023,0.058651023,0.107526886,0.205278587
0.048875852,0.058651023,0.107526886,0.205278587
0.048875852,0.068426199,0.107526886,0.215053773
0.048875852,0.068426199,0.107526886,0.244379282
0.048875852,0.068426199,0.117302048,0.234604096
0.048875852,0.068426199,0.117302048,0.224828935
0.048875852,0.078201365,0.107526886,0.234604096
0.048875852,0.078201365,0.117302048,0.234604096
0.048875852,0.078201365,0.107526886,0.234604096
0.048875852,0.087976542,0.107526886,0.234604096
0.048875852,0.087976542,0.107526886,0.254154444
0.048875852,0.087976542,0.107526886,0.254154444
0.048875852,0.087976542,0.117302048,0.283479958
0.058651023,0.087976542,0.107526886,0.293255119
0.048875852,0.078201365,0.107526886,0.293255119
0.048875852,0.087976542,0.107526886,0.293255119
0.048875852,0.087976542,0.117302048,0.293255119
0.048875852,0.087976542,0.117302048,0.3030303
0.048875852,0.087976542,0.127077222,0.312805462
0.048875852,0.087976542,0.127077222,0.332355833
0.048875852,0.097751703,0.117302048,0.342130995
0.058651023,0.097751703,0.127077222,0.342130995
0.048875852,0.107526886,0.117302048,0.332355833
0.048875852,0.107526886,0.117302048,0.322580624
0.048875852,0.107526886,0.117302048,0.312805462
0.048875852,0.107526886,0.117302048,0.3030303
0.048875852,0.117302048,0.107526886,0.3030303
0.048875852,0.117302048,0.117302048,0.3030303
0.048875852,0.117302048,0.117302048,0.312805462
0.048875852,0.117302048,0.127077222,0.312805462
0.058651023,0.117302048,0.127077222,0.312805462
0.048875852,0.117302048,0.127077222,0.351906157
0.048875852,0.117302048,0.117302048,0.342130995
0.048875852,0.127077222,0.117302048,0.351906157
0.048875852,0.117302048,0.117302048,0.342130995
0.048875852,0.127077222,0.117302048,0.361681342
0.048875852,0.117302048,0.107526886,0.371456504
0.058651023,0.127077222,0.107526886,0.371456504
0.048875852,0.127077222,0.107526886,0.38123167
0.058651023,0.127077222,0.107526886,0.400782013
0.048875852,0.117302048,0.107526886,0.391006832
0.048875852,0.117302048,0.107526886,0.391006832
0.048875852,0.117302048,0.107526886,0.38123167
0.048875852,0.117302048,0.107526886,0.38123167
0.048875852,0.107526886,0.107526886,0.391006832
0.058651023,0.107526886,0.107526886,0.410557175
0.058651023,0.107526886,0.107526886,0.420332336
0.048875852,0.097751703,0.107526886,0.400782013
0.048875852,0.107526886,0.097751703,0.391006832
0.058651023,0.097751703,0.097751703,0.400782013
0.058651023,0.097751703,0.107526886,0.391006832
0.048875852,0.097751703,0.097751703,0.391006832
0.058651023,0.097751703,0.097751703,0.391006832
0.058651023,0.107526886,0.097751703,0.391006832
0.048875852,0.107526886,0.097751703,0.38123167
0.048875852,0.107526886,0.097751703,0.38123167
0.048875852,0.107526886,0.097751703,0.38123167
0.058651023,0.097751703,0.097751703,0.38123167
0.058651023,0.097751703,0.097751703,0.38123167
0.058651023,0.087976542,0.097751703,0.391006832
0.058651023,0.097751703,0.107526886,0.400782013
0.068426199,0.107526886,0.107526886,0.400782013
0.068426199,0.097751703,0.107526886,0.410557175
0.058651023,0.097751703,0.107526886,0.400782013
0.068426199,0.087976542,0.097751703,0.400782013
0.068426199,0.087976542,0.097751703,0.420332336
0.068426199,0.087976542,0.087976542,0.430107546
0.068426199,0.097751703,0.087976542,0.430107546
0.078201365,0.087976542,0.087976542,0.420332336
0.068426199,0.087976542,0.087976542,0.420332336
0.068426199,0.087976542,0.097751703,0.420332336
0.068426199,0.087976542,0.097751703,0.420332336
0.068426199,0.087976542,0.107526886,0.430107546
0.058651023,0.078201365,0.107526886,0.430107546
0.058651023,0.078201365,0.097751703,0.430107546
0.058651023,0.078201365,0.097751703,0.449657869
0.058651023,0.078201365,0.087976542,0.439882708
0.058651023,0.078201365,0.087976542,0.459433031
0.068426199,0.078201365,0.087976542,0.469208193
0.058651023,0.078201365,0.087976542,0.478983355
0.058651023,0.078201365,0.078201365,0.459433031
0.058651023,0.078201365,0.078201365,0.478983355
0.058651023,0.078201365,0.068426199,0.488758564
0.058651023,0.068426199,0.078201365,0.527859211
0.068426199,0.068426199,0.078201365,0.527859211
0.068426199,0.058651023,0.078201365,0.566959906
0.068426199,0.058651023,0.078201365,0.566959906
0.078201365,0.068426199,0.078201365,0.547409582
0.078201365,0.058651023,0.068426199,0.547409582
0.078201365,0.058651023,0.078201365,0.586510229
0.078201365,0.058651023,0.078201365,0.615835762
0.078201365,0.058651023,0.078201365,0.635386086
0.078201365,0.068426199,0.068426199,0.635386086
0.078201365,0.068426199,0.068426199,0.625610924
0.078201365,0.068426199,0.068426199,0.625610924
0.087976542,0.058651023,0.068426199,0.615835762
0.078201365,0.058651023,0.068426199,0.615835762
0.087976542,0.068426199,0.058651023,0.6060606
0.087976542,0.058651023,0.058651023,0.586510229
0.097751703,0.058651023,0.068426199,0.566959906
0.087976542,0.068426199,0.068426199,0.557184744
0.097751703,0.058651023,0.058651023,0.596285439
0.097751703,0.058651023,0.058651023,0.576735067
0.097751703,0.058651023,0.058651023,0.566959906
0.107526886,0.058651023,0.058651023,0.586510229
0.107526886,0.068426199,0.058651023,0.6060606
0.107526886,0.068426199,0.058651023,0.615835762
0.107526886,0.068426199,0.068426199,0.625610924
0.107526886,0.068426199,0.068426199,0.654936409
0.097751703,0.068426199,0.068426199,0.68426199
0.107526886,0.068426199,0.068426199,0.733137846
0.097751703,0.058651023,0.058651023,0.752688169
0.097751703,0.058651023,0.068426199,0.821114349
0.107526886,0.058651023,0.068426199,0.830889511
0.097751703,0.058651023,0.068426199,0.9090909
0.107526886,0.048875852,0.078201365,0.899315739
0.107526886,0.058651023,0.078201365,0.879765415
0.107526886,0.048875852,0.078201365,0.85043993
0.107526886,0.058651023,0.087976542,0.811339188
0.107526886,0.058651023,0.078201365,0.791788864
0.107526886,0.048875852,0.078201365,0.772238493
0.117302048,0.048875852,0.087976542,0.742913008
0.117302048,0.058651023,0.087976542,0.703812313
0.127077222,0.058651023,0.087976542,0.68426199
0.136852396,0.058651023,0.087976542,0.674486828
0.136852396,0.058651023,0.087976542,0.674486828
0.136852396,0.068426199,0.078201365,0.654936409
0.127077222,0.058651023,0.078201365,0.645161247
0.127077222,0.058651023,0.078201365,0.645161247
0.127077222,0.058651023,0.087976542,0.625610924
0.136852396,0.058651023,0.078201365,0.625610924
0.127077222,0.058651023,0.078201365,0.615835762
0.127077222,0.068426199,0.087976542,0.6060606
0.127077222,0.078201365,0.087976542,0.586510229
0.117302048,0.078201365,0.097751703,0.576735067
0.127077222,0.078201365,0.107526886,0.576735067
0.127077222,0.078201365,0.107526886,0.586510229
0.117302048,0.097751703,0.107526886,0.586510229
0.117302048,0.097751703,0.107526886,0.6060606
0.127077222,0.097751703,0.117302048,0.596285439
0.127077222,0.097751703,0.117302048,0.586510229
0.127077222,0.097751703,0.127077222,0.566959906
0.127077222,0.097751703,0.117302048,0.547409582
0.136852396,0.087976542,0.117302048,0.527859211
0.14662756,0.097751703,0.107526886,0.508308887
0.175953078,0.107526886,0.117302048,0.498533726
0.215053773,0.107526886,0.117302048,0.478983355
0.244379282,0.107526886,0.117302048,0.459433031
0.273704791,0.097751703,0.117302048,0.449657869
0.322580624,0.097751703,0.117302048,0.439882708
0.342130995,0.097751703,0.117302048,0.449657869
0.38123167,0.087976542,0.117302048,0.420332336
0.391006832,0.097751703,0.107526886,0.410557175
0.410557175,0.087976542,0.107526886,0.391006832
0.449657869,0.087976542,0.107526886,0.38123167
0.459433031,0.087976542,0.117302048,0.371456504
0.459433031,0.078201365,0.107526886,0.371456504
0.449657869,0.087976542,0.107526886,0.371456504
0.449657869,0.087976542,0.107526886,0.351906157
0.439882708,0.097751703,0.107526886,0.332355833
0.420332336,0.097751703,0.107526886,0.322580624
0.410557175,0.097751703,0.107526886,0.322580624
0.391006832,0.087976542,0.107526886,0.322580624
0.371456504,0.087976542,0.117302048,0.332355833
0.351906157,0.107526886,0.117302048,0.322580624
0.342130995,0.127077222,0.117302048,0.312805462
0.322580624,0.117302048,0.117302048,0.312805462
0.312805462,0.117302048,0.127077222,0.3030303
0.293255119,0.117302048,0.127077222,0.293255119
0.283479958,0.127077222,0.127077222,0.283479958
0.283479958,0.127077222,0.127077222,0.273704791
0.273704791,0.127077222,0.127077222,0.263929605
0.263929605,0.127077222,0.127077222,0.263929605
0.244379282,0.117302048,0.136852396,0.273704791
0.234604096,0.117302048,0.136852396,0.263929605
0.234604096,0.107526886,0.136852396,0.254154444
0.224828935,0.107526886,0.136852396,0.244379282
0.215053773,0.107526886,0.136852396,0.234604096
0.215053773,0.107526886,0.136852396,0.224828935
0.215053773,0.097751703,0.136852396,0.205278587
0.205278587,0.097751703,0.136852396,0.205278587
0.215053773,0.087976542,0.136852396,0.195503416
0.205278587,0.087976542,0.14662756,0.195503416
0.195503416,0.087976542,0.136852396,0.185728254
0.195503416,0.107526886,0.14662756,0.175953078
0.195503416,0.107526886,0.14662756,0.166177917
0.185728254,0.097751703,0.14662756,0.175953078
0.185728254,0.087976542,0.14662756,0.175953078
0.195503416,0.087976542,0.14662756,0.166177917
0.205278587,0.087976542,0.14662756,0.175953078
0.205278587,0.097751703,0.14662756,0.166177917
0.215053773,0.097751703,0.136852396,0.156402731
0.215053773,0.087976542,0.136852396,0.156402731
0.215053773,0.087976542,0.14662756,0.156402731
0.205278587,0.087976542,0.136852396,0.156402731
0.215053773,0.087976542,0.136852396,0.156402731
0.205278587,0.078201365,0.127077222,0.156402731
0.195503416,0.078201365,0.127077222,0.175953078
0.185728254,0.078201365,0.127077222,0.175953078
0.175953078,0.078201365,0.117302048,0.166177917
0.175953078,0.078201365,0.117302048,0.156402731
0.166177917,0.078201365,0.117302048,0.156402731
0.166177917,0.078201365,0.117302048,0.14662756
0.156402731,0.078201365,0.107526886,0.14662756
0.156402731,0.078201365,0.107526886,0.156402731
0.14662756,0.078201365,0.107526886,0.156402731
0.14662756,0.078201365,0.107526886,0.14662756
0.136852396,0.078201365,0.117302048,0.14662756
0.136852396,0.068426199,0.117302048,0.136852396
0.127077222,0.068426199,0.107526886,0.136852396
0.127077222,0.068426199,0.107526886,0.136852396
0.117302048,0.058651023,0.097751703,0.127077222
0.117302048,0.058651023,0.107526886,0.14662756
0.117302048,0.058651023,0.107526886,0.156402731
0.117302048,0.048875852,0.107526886,0.166177917
0.107526886,0.048875852,0.097751703,0.195503416
0.107526886,0.048875852,0.097751703,0.215053773
0.107526886,0.048875852,0.097751703,0.205278587
0.107526886,0.048875852,0.097751703,0.205278587
0.117302048,0.039100683,0.107526886,0.205278587
0.117302048,0.039100683,0.107526886,0.215053773
0.117302048,0.039100683,0.107526886,0.234604096
0.117302048,0.039100683,0.097751703,0.244379282
0.127077222,0.039100683,0.097751703,0.254154444
0.136852396,0.039100683,0.107526886,0.263929605
0.136852396,0.039100683,0.107526886,0.263929605
0.14662756,0.039100683,0.117302048,0.263929605
0.156402731,0.039100683,0.107526886,0.254154444
0.166177917,0.039100683,0.097751703,0.254154444
0.175953078,0.039100683,0.097751703,0.244379282
0.185728254,0.039100683,0.107526886,0.254154444
0.185728254,0.029325512,0.107526886,0.263929605
0.175953078,0.029325512,0.107526886,0.273704791
0.175953078,0.029325512,0.107526886,0.283479958
0.185728254,0.029325512,0.097751703,0.283479958
0.185728254,0.029325512,0.097751703,0.273704791
0.185728254,0.029325512,0.087976542,0.283479958
0.175953078,0.029325512,0.087976542,0.273704791
0.166177917,0.029325512,0.087976542,0.273704791
0.156402731,0.029325512,0.087976542,0.283479958
0.156402731,0.029325512,0.087976542,0.273704791
0.156402731,0.029325512,0.078201365,0.273704791
0.14662756,0.029325512,0.087976542,0.283479958
0.14662756,0.039100683,0.087976542,0.273704791
0.14662756,0.029325512,0.087976542,0.263929605
0.156402731,0.029325512,0.087976542,0.263929605
0.14662756,0.029325512,0.087976542,0.263929605
0.14662756,0.029325512,0.087976542,0.263929605
0.156402731,0.029325512,0.087976542,0.254154444
0.156402731,0.029325512,0.087976542,0.254154444
0.166177917,0.029325512,0.087976542,0.244379282
0.166177917,0.029325512,0.087976542,0.234604096
0.156402731,0.029325512,0.097751703,0.224828935
0.156402731,0.029325512,0.087976542,0.215053773
0.156402731,0.029325512,0.087976542,0.215053773
0.156402731,0.039100683,0.078201365,0.205278587
0.14662756,0.039100683,0.078201365,0.205278587
0.14662756,0.039100683,0.078201365,0.195503416
0.136852396,0.039100683,0.087976542,0.205278587
0.127077222,0.039100683,0.087976542,0.205278587
0.127077222,0.048875852,0.078201365,0.205278587
0.117302048,0.048875852,0.078201365,0.205278587
0.117302048,0.048875852,0.078201365,0.195503416
0.107526886,0.048875852,0.078201365,0.185728254
0.117302048,0.058651023,0.078201365,0.175953078
0.107526886,0.058651023,0.078201365,0.175953078
0.107526886,0.058651023,0.078201365,0.166177917
0.107526886,0.058651023,0.078201365,0.166177917
0.097751703,0.058651023,0.078201365,0.156402731
0.097751703,0.058651023,0.068426199,0.156402731
0.097751703,0.058651023,0.068426199,0.156402731
0.107526886,0.058651023,0.078201365,0.14662756
0.107526886,0.058651023,0.078201365,0.136852396
0.107526886,0.058651023,0.078201365,0.136852396
0.136852396,0.058651023,0.068426199,0.136852396
0.175953078,0.048875852,0.078201365,0.136852396
0.205278587,0.048875852,0.068426199,0.14662756
0.244379282,0.048875852,0.068426199,0.14662756
0.273704791,0.048875852,0.078201365,0.166177917
0.293255119,0.058651023,0.068426199,0.175953078
0.3030303,0.058651023,0.078201365,0.175953078
0.312805462,0.068426199,0.068426199,0.175953078
0.312805462,0.078201365,0.068426199,0.175953078
0.3030303,0.078201365,0.058651023,0.166177917
0.283479958,0.078201365,0.068426199,0.166177917
0.273704791,0.078201365,0.068426199,0.156402731
0.263929605,0.078201365,0.068426199,0.156402731
0.254154444,0.078201365,0.058651023,0.14662756
0.254154444,0.087976542,0.058651023,0.136852396
0.234604096,0.087976542,0.058651023,0.136852396
0.234604096,0.107526886,0.068426199,0.136852396
0.215053773,0.107526886,0.068426199,0.127077222
0.215053773,0.107526886,0.068426199,0.117302048
0.205278587,0.107526886,0.068426199,0.117302048
0.195503416,0.107526886,0.078201365,0.117302048
0.185728254,0.117302048,0.078201365,0.127077222
0.175953078,0.127077222,0.078201365,0.117302048
0.175953078,0.14662756,0.078201365,0.117302048
0.195503416,0.136852396,0.087976542,0.117302048
0.215053773,0.14662756,0.087976542,0.117302048
0.224828935,0.136852396,0.087976542,0.117302048
0.234604096,0.136852396,0.087976542,0.117302048
0.254154444,0.127077222,0.087976542,0.107526886
0.263929605,0.127077222,0.087976542,0.107526886
0.273704791,0.127077222,0.097751703,0.107526886
0.283479958,0.136852396,0.087976542,0.107526886
0.293255119,0.136852396,0.097751703,0.107526886
0.293255119,0.136852396,0.087976542,0.107526886
0.3030303,0.14662756,0.087976542,0.107526886
0.312805462,0.14662756,0.087976542,0.097751703
0.312805462,0.156402731,0.078201365,0.097751703
0.322580624,0.156402731,0.078201365,0.097751703
0.322580624,0.175953078,0.078201365,0.097751703
0.322580624,0.185728254,0.078201365,0.097751703
0.322580624,0.195503416,0.078201365,0.097751703
0.322580624,0.205278587,0.068426199,0.097751703
0.312805462,0.195503416,0.068426199,0.107526886
0.3030303,0.215053773,0.078201365,0.107526886
0.293255119,0.205278587,0.068426199,0.097751703
0.283479958,0.195503416,0.078201365,0.107526886
0.263929605,0.205278587,0.078201365,0.097751703
0.254154444,0.195503416,0.068426199,0.097751703
0.244379282,0.195503416,0.068426199,0.097751703
0.224828935,0.195503416,0.068426199,0.097751703
0.224828935,0.195503416,0.068426199,0.087976542
0.224828935,0.205278587,0.078201365,0.087976542
0.215053773,0.215053773,0.078201365,0.097751703
0.215053773,0.215053773,0.078201365,0.097751703
0.215053773,0.215053773,0.078201365,0.097751703
0.205278587,0.205278587,0.078201365,0.097751703
0.205278587,0.205278587,0.078201365,0.097751703
0.224828935,0.195503416,0.078201365,0.097751703
0.234604096,0.205278587,0.078201365,0.107526886
0.283479958,0.205278587,0.087976542,0.097751703
0.322580624,0.215053773,0.087976542,0.097751703
0.351906157,0.215053773,0.087976542,0.087976542
0.38123167,0.224828935,0.078201365,0.087976542
0.400782013,0.224828935,0.087976542,0.097751703
0.410557175,0.224828935,0.087976542,0.087976542
0.400782013,0.215053773,0.097751703,0.087976542
0.391006832,0.215053773,0.097751703,0.087976542
0.371456504,0.215053773,0.097751703,0.097751703
0.351906157,0.215053773,0.097751703,0.087976542
0.332355833,0.205278587,0.097751703,0.097751703
0.322580624,0.215053773,0.107526886,0.097751703
0.312805462,0.215053773,0.107526886,0.107526886
0.322580624,0.205278587,0.107526886,0.097751703
0.351906157,0.215053773,0.107526886,0.097751703
0.38123167,0.205278587,0.107526886,0.097751703
0.400782013,0.224828935,0.117302048,0.097751703
0.420332336,0.234604096,0.117302048,0.097751703
0.439882708,0.244379282,0.117302048,0.097751703
0.449657869,0.244379282,0.107526886,0.087976542
0.459433031,0.234604096,0.107526886,0.087976542
0.449657869,0.244379282,0.117302048,0.087976542
0.439882708,0.234604096,0.107526886,0.087976542
0.410557175,0.234604096,0.107526886,0.097751703
0.391006832,0.263929605,0.097751703,0.097751703
0.38123167,0.254154444,0.117302048,0.097751703
0.361681342,0.254154444,0.117302048,0.097751703
0.351906157,0.263929605,0.117302048,0.097751703
0.342130995,0.263929605,0.127077222,0.097751703
0.342130995,0.263929605,0.127077222,0.087976542
0.332355833,0.263929605,0.127077222,0.087976542
0.332355833,0.254154444,0.117302048,0.087976542
0.322580624,0.254154444,0.127077222,0.087976542
0.332355833,0.244379282,0.127077222,0.087976542
0.332355833,0.244379282,0.127077222,0.087976542
0.342130995,0.234604096,0.127077222,0.087976542
0.342130995,0.234604096,0.127077222,0.087976542
0.342130995,0.244379282,0.127077222,0.087976542
0.342130995,0.234604096,0.117302048,0.087976542
0.332355833,0.224828935,0.107526886,0.087976542
0.351906157,0.224828935,0.107526886,0.087976542
0.371456504,0.244379282,0.097751703,0.078201365
0.38123167,0.254154444,0.097751703,0.078201365
0.391006832,0.254154444,0.097751703,0.078201365
0.400782013,0.263929605,0.087976542,0.078201365
0.410557175,0.254154444,0.087976542,0.078201365
0.420332336,0.254154444,0.087976542,0.078201365
0.420332336,0.244379282,0.078201365,0.078201365
0.420332336,0.244379282,0.068426199,0.078201365
0.430107546,0.234604096,0.068426199,0.078201365
0.430107546,0.234604096,0.068426199,0.078201365
0.430107546,0.224828935,0.068426199,0.078201365
0.410557175,0.224828935,0.068426199,0.078201365
0.400782013,0.234604096,0.058651023,0.078201365
0.371456504,0.244379282,0.058651023,0.078201365
0.351906157,0.254154444,0.058651023,0.078201365
0.332355833,0.273704791,0.058651023,0.078201365
0.322580624,0.293255119,0.048875852,0.078201365
0.312805462,0.3030303,0.048875852,0.078201365
0.293255119,0.332355833,0.048875852,0.087976542
0.283479958,0.332355833,0.039100683,0.087976542
0.263929605,0.322580624,0.048875852,0.087976542
0.263929605,0.322580624,0.048875852,0.087976542
0.263929605,0.322580624,0.039100683,0.097751703
0.263929605,0.332355833,0.039100683,0.107526886
0.254154444,0.361681342,0.039100683,0.107526886
0.244379282,0.371456504,0.039100683,0.107526886
0.234604096,0.391006832,0.039100683,0.107526886
0.224828935,0.400782013,0.039100683,0.117302048
0.215053773,0.410557175,0.039100683,0.117302048
0.215053773,0.400782013,0.039100683,0.117302048
0.205278587,0.391006832,0.039100683,0.117302048
0.195503416,0.391006832,0.039100683,0.117302048
0.185728254,0.371456504,0.039100683,0.117302048
0.175953078,0.361681342,0.039100683,0.117302048
0.175953078,0.351906157,0.048875852,0.107526886
0.166177917,0.371456504,0.039100683,0.107526886
0.166177917,0.371456504,0.039100683,0.117302048
0.166177917,0.371456504,0.039100683,0.107526886
0.156402731,0.361681342,0.039100683,0.107526886
0.156402731,0.391006832,0.039100683,0.107526886
0.166177917,0.38123167,0.039100683,0.107526886
0.156402731,0.38123167,0.039100683,0.117302048
0.156402731,0.391006832,0.039100683,0.117302048
0.14662756,0.459433031,0.039100683,0.117302048
0.14662756,0.469208193,0.039100683,0.117302048
0.136852396,0.478983355,0.039100683,0.117302048
0.136852396,0.518084049,0.039100683,0.117302048
0.127077222,0.518084049,0.048875852,0.127077222
0.127077222,0.527859211,0.048875852,0.117302048
0.117302048,0.518084049,0.048875852,0.117302048
0.107526886,0.498533726,0.048875852,0.127077222
0.107526886,0.488758564,0.048875852,0.127077222
0.097751703,0.478983355,0.048875852,0.127077222
0.097751703,0.478983355,0.058651023,0.127077222
0.097751703,0.459433031,0.058651023,0.136852396
0.097751703,0.459433031,0.058651023,0.136852396
0.097751703,0.449657869,0.058651023,0.127077222
0.087976542,0.478983355,0.058651023,0.117302048
0.087976542,0.508308887,0.068426199,0.117302048
0.087976542,0.488758564,0.068426199,0.127077222
0.087976542,0.498533726,0.078201365,0.127077222
0.078201365,0.488758564,0.078201365,0.127077222
0.087976542,0.488758564,0.078201365,0.127077222
0.087976542,0.469208193,0.078201365,0.127077222
0.087976542,0.459433031,0.078201365,0.127077222
0.097751703,0.439882708,0.078201365,0.127077222
0.107526886,0.430107546,0.078201365,0.117302048
0.117302048,0.430107546,0.078201365,0.117302048
0.127077222,0.410557175,0.078201365,0.117302048
0.14662756,0.400782013,0.078201365,0.117302048
0.14662756,0.38123167,0.078201365,0.117302048
0.14662756,0.400782013,0.078201365,0.107526886
0.136852396,0.400782013,0.078201365,0.107526886
0.127077222,0.439882708,0.078201365,0.107526886
0.127077222,0.439882708,0.078201365,0.107526886
0.127077222,0.439882708,0.078201365,0.107526886
0.117302048,0.430107546,0.087976542,0.107526886
0.117302048,0.410557175,0.087976542,0.097751703
0.117302048,0.400782013,0.087976542,0.107526886
0.117302048,0.420332336,0.087976542,0.107526886
0.117302048,0.400782013,0.097751703,0.097751703
0.117302048,0.400782013,0.097751703,0.097751703
0.117302048,0.400782013,0.097751703,0.107526886
0.117302048,0.391006832,0.107526886,0.097751703
0.117302048,0.38123167,0.107526886,0.097751703
0.117302048,0.361681342,0.097751703,0.097751703
0.117302048,0.361681342,0.117302048,0.097751703
0.117302048,0.351906157,0.107526886,0.097751703
0.117302048,0.361681342,0.117302048,0.097751703
0.117302048,0.342130995,0.117302048,0.087976542
0.117302048,0.351906157,0.117302048,0.087976542
0.107526886,0.342130995,0.117302048,0.087976542
0.107526886,0.332355833,0.117302048,0.087976542
0.097751703,0.332355833,0.107526886,0.087976542
0.097751703,0.322580624,0.107526886,0.087976542
0.087976542,0.322580624,0.107526886,0.087976542
0.087976542,0.332355833,0.107526886,0.078201365
0.097751703,0.322580624,0.107526886,0.078201365
0.097751703,0.322580624,0.107526886,0.078201365
0.107526886,0.312805462,0.117302048,0.068426199
0.127077222,0.293255119,0.136852396,0.078201365
0.14662756,0.312805462,0.136852396,0.078201365
0.175953078,0.312805462,0.136852396,0.078201365
0.205278587,0.342130995,0.14662756,0.078201365
0.244379282,0.332355833,0.166177917,0.068426199
0.283479958,0.342130995,0.175953078,0.078201365
0.312805462,0.332355833,0.175953078,0.078201365
0.351906157,0.332355833,0.185728254,0.068426199
0.371456504,0.322580624,0.185728254,0.068426199
0.391006832,0.312805462,0.175953078,0.068426199
0.410557175,0.312805462,0.166177917,0.068426199
0.410557175,0.3030303,0.166177917,0.068426199
0.420332336,0.293255119,0.166177917,0.078201365
0.420332336,0.3030303,0.156402731,0.068426199
0.400782013,0.3030303,0.156402731,0.078201365
0.400782013,0.293255119,0.166177917,0.068426199
0.391006832,0.283479958,0.175953078,0.078201365
0.371456504,0.273704791,0.175953078,0.078201365
0.351906157,0.273704791,0.175953078,0.078201365
0.332355833,0.263929605,0.166177917,0.068426199
0.322580624,0.263929605,0.175953078,0.078201365
0.312805462,0.263929605,0.175953078,0.078201365
0.3030303,0.254154444,0.185728254,0.068426199
0.293255119,0.263929605,0.175953078,0.068426199
0.293255119,0.254154444,0.185728254,0.068426199
0.293255119,0.254154444,0.175953078,0.068426199
0.293255119,0.254154444,0.175953078,0.068426199
0.3030303,0.254154444,0.175953078,0.068426199
0.3030303,0.244379282,0.175953078,0.068426199
0.3030303,0.244379282,0.166177917,0.068426199
0.312805462,0.234604096,0.166177917,0.068426199
0.312805462,0.234604096,0.175953078,0.068426199
0.312805462,0.224828935,0.195503416,0.068426199
0.312805462,0.215053773,0.195503416,0.068426199
0.312805462,0.215053773,0.205278587,0.068426199
0.312805462,0.205278587,0.205278587,0.068426199
0.312805462,0.205278587,0.224828935,0.058651023
0.3030303,0.195503416,0.224828935,0.058651023
0.3030303,0.205278587,0.215053773,0.068426199
0.293255119,0.215053773,0.205278587,0.058651023
0.283479958,0.234604096,0.195503416,0.058651023
0.273704791,0.224828935,0.195503416,0.058651023
0.263929605,0.224828935,0.195503416,0.058651023
0.254154444,0.224828935,0.205278587,0.058651023
0.244379282,0.224828935,0.215053773,0.048875852
0.234604096,0.215053773,0.215053773,0.058651023
0.224828935,0.215053773,0.215053773,0.048875852
0.205278587,0.215053773,0.224828935,0.058651023
0.195503416,0.215053773,0.224828935,0.048875852
0.185728254,0.215053773,0.224828935,0.058651023
0.185728254,0.215053773,0.215053773,0.058651023
0.175953078,0.205278587,0.215053773,0.058651023
0.166177917,0.205278587,0.205278587,0.058651023
0.166177917,0.205278587,0.205278587,0.058651023
0.156402731,0.195503416,0.205278587,0.058651023
0.156402731,0.215053773,0.205278587,0.058651023
0.156402731,0.205278587,0.205278587,0.058651023
0.156402731,0.205278587,0.205278587,0.058651023
0.156402731,0.195503416,0.195503416,0.058651023
0.166177917,0.195503416,0.195503416,0.068426199
0.166177917,0.195503416,0.185728254,0.068426199
0.166177917,0.195503416,0.185728254,0.068426199
0.156402731,0.195503416,0.175953078,0.068426199
0.156402731,0.185728254,0.175953078,0.058651023
0.156402731,0.195503416,0.185728254,0.068426199
0.156402731,0.195503416,0.185728254,0.058651023
0.14662756,0.195503416,0.195503416,0.058651023
0.136852396,0.185728254,0.195503416,0.058651023
0.136852396,0.185728254,0.185728254,0.058651023
0.127077222,0.175953078,0.205278587,0.058651023
0.117302048,0.166177917,0.215053773,0.058651023
0.117302048,0.175953078,0.205278587,0.058651023
0.117302048,0.175953078,0.224828935,0.058651023
0.107526886,0.175953078,0.215053773,0.068426199
0.107526886,0.166177917,0.215053773,0.068426199
0.107526886,0.166177917,0.215053773,0.068426199
0.097751703,0.166177917,0.205278587,0.068426199
0.097751703,0.175953078,0.224828935,0.078201365
0.087976542,0.175953078,0.234604096,0.068426199
0.097751703,0.175953078,0.224828935,0.078201365
0.097751703,0.185728254,0.234604096,0.078201365
0.097751703,0.175953078,0.263929605,0.078201365
0.097751703,0.175953078,0.293255119,0.087976542
0.097751703,0.166177917,0.283479958,0.078201365
0.097751703,0.166177917,0.283479958,0.087976542
0.097751703,0.166177917,0.312805462,0.087976542
0.087976542,0.156402731,0.312805462,0.097751703
0.097751703,0.156402731,0.3030303,0.097751703
0.087976542,0.156402731,0.293255119,0.097751703
0.087976542,0.14662756,0.312805462,0.097751703
0.078201365,0.14662756,0.342130995,0.107526886
0.078201365,0.14662756,0.342130995,0.107526886
0.068426199,0.156402731,0.361681342,0.107526886
0.068426199,0.14662756,0.361681342,0.117302048
0.068426199,0.14662756,0.361681342,0.107526886
0.068426199,0.156402731,0.361681342,0.107526886
0.058651023,0.14662756,0.361681342,0.117302048
0.058651023,0.156402731,0.351906157,0.117302048
0.068426199,0.156402731,0.342130995,0.117302048
0.068426199,0.156402731,0.351906157,0.117302048
0.068426199,0.156402731,0.361681342,0.117302048
0.078201365,0.14662756,0.361681342,0.107526886
0.078201365,0.14662756,0.351906157,0.107526886
0.078201365,0.14662756,0.371456504,0.107526886
0.087976542,0.136852396,0.391006832,0.107526886
0.087976542,0.136852396,0.391006832,0.117302048
0.087976542,0.136852396,0.391006832,0.117302048
0.087976542,0.136852396,0.391006832,0.107526886
0.097751703,0.14662756,0.371456504,0.107526886
0.097751703,0.136852396,0.391006832,0.107526886
0.097751703,0.14662756,0.391006832,0.107526886
0.097751703,0.14662756,0.391006832,0.107526886
0.087976542,0.136852396,0.391006832,0.107526886
0.087976542,0.136852396,0.400782013,0.107526886
0.087976542,0.136852396,0.38123167,0.097751703
0.087976542,0.127077222,0.400782013,0.107526886
0.078201365,0.127077222,0.400782013,0.097751703
0.078201365,0.117302048,0.38123167,0.097751703
0.078201365,0.117302048,0.371456504,0.107526886
0.068426199,0.107526886,0.351906157,0.107526886
0.068426199,0.107526886,0.342130995,0.107526886
0.068426199,0.107526886,0.351906157,0.107526886
0.068426199,0.107526886,0.361681342,0.097751703
0.068426199,0.107526886,0.361681342,0.097751703
0.078201365,0.117302048,0.351906157,0.097751703
0.068426199,0.127077222,0.391006832,0.107526886
0.068426199,0.136852396,0.38123167,0.097751703
0.068426199,0.136852396,0.371456504,0.097751703
0.068426199,0.136852396,0.371456504,0.097751703
0.068426199,0.127077222,0.38123167,0.097751703
0.068426199,0.127077222,0.38123167,0.097751703
0.078201365,0.127077222,0.361681342,0.107526886
0.068426199,0.117302048,0.351906157,0.107526886
0.068426199,0.117302048,0.351906157,0.107526886
0.068426199,0.117302048,0.38123167,0.107526886
0.068426199,0.117302048,0.449657869,0.107526886
0.068426199,0.107526886,0.449657869,0.107526886
0.078201365,0.107526886,0.527859211,0.107526886
0.068426199,0.107526886,0.527859211,0.117302048
0.078201365,0.107526886,0.508308887,0.107526886
0.078201365,0.107526886,0.488758564,0.117302048
0.087976542,0.097751703,0.508308887,0.127077222
