0.097751703,0.097751703,0.166177917,0.097751703
1.739980459,1.788856268,1.876832867,1.779081106
1.779081106,1.83773222,1.935483837,1.818181896
1.69110465,1.739980459,1.83773222,1.710654974
1.603128052,1.642228699,1.739980459,1.642228699
1.524926662,1.573802567,1.642228699,1.544476986
1.436950111,1.495601177,1.573802567,1.466275692
1.358748794,1.42717495,1.495601177,1.388074284
1.290322542,1.368523955,1.42717495,1.319648147
1.22189641,1.290322542,1.368523955,1.251221895
1.16324532,1.22189641,1.300097704,1.173020482
1.10459435,1.16324532,1.241446733,1.114369512
1.055718422,1.10459435,1.173020482,1.055718422
1.006842613,1.04594326,1.133919835,1.006842613
0.967741871,0.997067451,1.085044022,0.967741871
0.928641224,0.948191547,1.026392937,0.938416386
0.899315739,0.889540577,0.98729229,0.889540577
0.860215092,0.85043993,0.928641224,0.85043993
0.811339188,0.801564026,0.899315739,0.801564026
0.782013655,0.772238493,0.860215092,0.772238493
0.742913008,0.733137846,0.830889511,0.752688169
0.713587475,0.694037151,0.801564026,0.713587475
0.68426199,0.664711666,0.772238493,0.68426199
0.654936409,0.645161247,0.762463331,0.654936409
0.635386086,0.625610924,0.733137846,0.625610924
0.6060606,0.596285439,0.703812313,0.596285439
0.586510229,0.566959906,0.664711666,0.566959906
0.557184744,0.547409582,0.635386086,0.53763442
0.527859211,0.527859211,0.625610924,0.518084049
0.518084049,0.508308887,0.6060606,0.498533726
0.488758564,0.488758564,0.586510229,0.488758564
0.469208193,0.478983355,0.576735067,0.459433031
0.459433031,0.459433031,0.547409582,0.449657869
0.439882708,0.439882708,0.53763442,0.430107546
0.410557175,0.420332336,0.518084049,0.420332336
0.400782013,0.410557175,0.518084049,0.420332336
0.391006832,0.400782013,0.518084049,0.400782013
0.391006832,0.38123167,0.498533726,0.400782013
0.391006832,0.38123167,0.469208193,0.391006832
0.371456504,0.361681342,0.449657869,0.400782013
0.371456504,0.351906157,0.439882708,0.391006832
0.351906157,0.361681342,0.439882708,0.38123167
0.351906157,0.342130995,0.430107546,0.371456504
0.342130995,0.332355833,0.420332336,0.371456504
0.342130995,0.312805462,0.420332336,0.361681342
0.342130995,0.312805462,0.410557175,0.371456504
0.332355833,0.312805462,0.391006832,0.391006832
0.312805462,0.3030303,0.371456504,0.391006832
0.312805462,0.293255119,0.361681342,0.38123167
0.312805462,0.283479958,0.351906157,0.371456504
0.3030303,0.283479958,0.332355833,0.361681342
0.293255119,0.263929605,0.322580624,0.351906157
0.283479958,0.254154444,0.3030303,0.332355833
0.273704791,0.254154444,0.3030303,0.332355833
0.263929605,0.244379282,0.3030303,0.342130995
0.273704791,0.244379282,0.3030303,0.332355833
0.273704791,0.234604096,0.3030303,0.332355833
0.263929605,0.224828935,0.293255119,0.332355833
0.254154444,0.215053773,0.3030303,0.332355833
0.254154444,0.215053773,0.3030303,0.332355833
0.263929605,0.215053773,0.293255119,0.322580624
0.254154444,0.224828935,0.293255119,0.322580624
0.254154444,0.215053773,0.283479958,0.322580624
0.254154444,0.205278587,0.273704791,0.322580624
0.244379282,0.205278587,0.273704791,0.322580624
0.244379282,0.205278587,0.263929605,0.312805462
0.244379282,0.205278587,0.254154444,0.3030303
0.254154444,0.205278587,0.254154444,0.322580624
0.234604096,0.205278587,0.254154444,0.332355833
0.234604096,0.205278587,0.254154444,0.351906157
0.234604096,0.195503416,0.244379282,0.361681342
0.224828935,0.195503416,0.234604096,0.361681342
0.234604096,0.205278587,0.244379282,0.361681342
0.244379282,0.195503416,0.234604096,0.351906157
0.234604096,0.195503416,0.234604096,0.351906157
0.234604096,0.195503416,0.234604096,0.342130995
0.224828935,0.185728254,0.254154444,0.351906157
0.234604096,0.185728254,0.254154444,0.351906157
0.224828935,0.185728254,0.254154444,0.342130995
0.234604096,0.185728254,0.263929605,0.342130995
0.244379282,0.175953078,0.273704791,0.342130995
0.234604096,0.175953078,0.254154444,0.342130995
0.234604096,0.185728254,0.254154444,0.342130995
0.224828935,0.195503416,0.254154444,0.342130995
0.234604096,0.195503416,0.254154444,0.322580624
0.234604096,0.195503416,0.244379282,0.312805462
0.234604096,0.185728254,0.244379282,0.322580624
0.254154444,0.195503416,0.234604096,0.322580624
0.254154444,0.195503416,0.234604096,0.322580624
0.244379282,0.195503416,0.234604096,0.332355833
0.254154444,0.195503416,0.263929605,0.361681342
0.244379282,0.195503416,0.263929605,0.38123167
0.244379282,0.195503416,0.263929605,0.400782013
0.244379282,0.185728254,0.263929605,0.391006832
0.234604096,0.195503416,0.263929605,0.38123167
0.234604096,0.195503416,0.273704791,0.391006832
0.234604096,0.205278587,0.283479958,0.38123167
0.244379282,0.195503416,0.273704791,0.391006832
0.273704791,0.195503416,0.263929605,0.38123167
0.254154444,0.195503416,0.263929605,0.38123167
0.254154444,0.205278587,0.263929605,0.38123167
0.254154444,0.205278587,0.254154444,0.38123167
0.254154444,0.205278587,0.254154444,0.410557175
0.254154444,0.205278587,0.254154444,0.391006832
0.263929605,0.205278587,0.244379282,0.391006832
0.263929605,0.205278587,0.254154444,0.38123167
0.254154444,0.195503416,0.244379282,0.391006832
0.263929605,0.215053773,0.244379282,0.391006832
0.263929605,0.205278587,0.244379282,0.410557175
0.254154444,0.205278587,0.244379282,0.430107546
0.254154444,0.195503416,0.234604096,0.420332336
0.254154444,0.195503416,0.234604096,0.449657869
0.244379282,0.205278587,0.224828935,0.449657869
0.254154444,0.195503416,0.224828935,0.498533726
0.244379282,0.205278587,0.215053773,0.478983355
0.254154444,0.205278587,0.215053773,0.469208193
0.254154444,0.205278587,0.215053773,0.488758564
0.254154444,0.195503416,0.224828935,0.498533726
0.254154444,0.195503416,0.224828935,0.478983355
0.263929605,0.195503416,0.224828935,0.469208193
0.273704791,0.205278587,0.224828935,0.498533726
0.263929605,0.205278587,0.224828935,0.498533726
0.283479958,0.205278587,0.224828935,0.498533726
0.293255119,0.195503416,0.224828935,0.498533726
0.283479958,0.195503416,0.234604096,0.498533726
0.293255119,0.195503416,0.224828935,0.498533726
0.3030303,0.205278587,0.224828935,0.498533726
0.293255119,0.195503416,0.224828935,0.547409582
0.293255119,0.205278587,0.215053773,0.557184744
0.3030303,0.195503416,0.215053773,0.566959906
0.332355833,0.195503416,0.215053773,0.557184744
0.342130995,0.185728254,0.224828935,0.527859211
0.332355833,0.185728254,0.234604096,0.508308887
0.322580624,0.185728254,0.224828935,0.498533726
0.322580624,0.185728254,0.224828935,0.488758564
0.332355833,0.175953078,0.215053773,0.488758564
0.351906157,0.175953078,0.244379282,0.488758564
0.342130995,0.175953078,0.244379282,0.488758564
0.332355833,0.175953078,0.244379282,0.478983355
0.371456504,0.185728254,0.234604096,0.469208193
0.38123167,0.175953078,0.244379282,0.508308887
0.38123167,0.175953078,0.234604096,0.508308887
0.38123167,0.175953078,0.234604096,0.518084049
0.391006832,0.175953078,0.224828935,0.53763442
0.38123167,0.166177917,0.234604096,0.527859211
0.371456504,0.166177917,0.234604096,0.53763442
0.361681342,0.185728254,0.224828935,0.576735067
0.351906157,0.195503416,0.244379282,0.596285439
0.342130995,0.195503416,0.234604096,0.576735067
0.332355833,0.195503416,0.234604096,0.6060606
0.342130995,0.185728254,0.224828935,0.6060606
0.322580624,0.185728254,0.224828935,0.615835762
0.332355833,0.185728254,0.224828935,0.635386086
0.332355833,0.185728254,0.224828935,0.664711666
0.312805462,0.185728254,0.224828935,0.645161247
0.312805462,0.195503416,0.224828935,0.625610924
0.3030303,0.195503416,0.215053773,0.694037151
0.3030303,0.205278587,0.215053773,0.703812313
0.283479958,0.205278587,0.195503416,0.762463331
0.273704791,0.215053773,0.195503416,0.733137846
0.273704791,0.205278587,0.195503416,0.703812313
0.263929605,0.195503416,0.205278587,0.694037151
0.273704791,0.195503416,0.205278587,0.694037151
0.273704791,0.205278587,0.205278587,0.68426199
0.273704791,0.205278587,0.195503416,0.645161247
0.283479958,0.195503416,0.195503416,0.635386086
0.283479958,0.195503416,0.195503416,0.6060606
0.293255119,0.185728254,0.205278587,0.596285439
0.293255119,0.195503416,0.195503416,0.6060606
0.283479958,0.195503416,0.185728254,0.6060606
0.283479958,0.195503416,0.195503416,0.625610924
0.273704791,0.195503416,0.205278587,0.625610924
0.273704791,0.185728254,0.205278587,0.615835762
0.263929605,0.185728254,0.185728254,0.6060606
0.254154444,0.185728254,0.185728254,0.635386086
0.244379282,0.185728254,0.205278587,0.713587475
0.244379282,0.185728254,0.205278587,0.742913008
0.244379282,0.185728254,0.205278587,0.742913008
0.244379282,0.185728254,0.215053773,0.742913008
0.234604096,0.175953078,0.215053773,0.752688169
0.234604096,0.175953078,0.215053773,0.762463331
0.234604096,0.166177917,0.215053773,0.762463331
0.244379282,0.166177917,0.215053773,0.782013655
0.244379282,0.166177917,0.224828935,0.821114349
0.234604096,0.175953078,0.215053773,0.840664673
0.234604096,0.175953078,0.215053773,0.811339188
0.234604096,0.185728254,0.215053773,0.801564026
0.224828935,0.185728254,0.215053773,0.811339188
0.224828935,0.185728254,0.215053773,0.801564026
0.234604096,0.185728254,0.234604096,0.772238493
0.234604096,0.185728254,0.224828935,0.752688169
0.234604096,0.185728254,0.215053773,0.742913008
0.234604096,0.175953078,0.224828935,0.713587475
0.244379282,0.175953078,0.224828935,0.723362684
0.244379282,0.175953078,0.234604096,0.723362684
0.254154444,0.175953078,0.224828935,0.752688169
0.254154444,0.166177917,0.215053773,0.733137846
0.254154444,0.175953078,0.205278587,0.713587475
0.254154444,0.166177917,0.205278587,0.703812313
0.254154444,0.166177917,0.205278587,0.68426199
0.244379282,0.175953078,0.195503416,0.664711666
0.254154444,0.175953078,0.205278587,0.654936409
0.254154444,0.166177917,0.195503416,0.635386086
0.254154444,0.166177917,0.205278587,0.635386086
0.273704791,0.166177917,0.195503416,0.645161247
0.283479958,0.166177917,0.205278587,0.635386086
0.283479958,0.166177917,0.205278587,0.615835762
0.293255119,0.166177917,0.205278587,0.596285439
0.283479958,0.166177917,0.205278587,0.586510229
0.3030303,0.166177917,0.205278587,0.596285439
0.293255119,0.156402731,0.215053773,0.625610924
0.312805462,0.156402731,0.224828935,0.654936409
0.332355833,0.156402731,0.215053773,0.68426199
0.342130995,0.156402731,0.215053773,0.664711666
0.332355833,0.14662756,0.224828935,0.674486828
0.361681342,0.156402731,0.244379282,0.68426199
0.391006832,0.166177917,0.244379282,0.664711666
0.38123167,0.175953078,0.254154444,0.654936409
0.371456504,0.175953078,0.254154444,0.635386086
0.371456504,0.175953078,0.254154444,0.635386086
0.391006832,0.175953078,0.254154444,0.615835762
0.371456504,0.185728254,0.234604096,0.645161247
0.361681342,0.185728254,0.234604096,0.625610924
0.342130995,0.195503416,0.234604096,0.6060606
0.342130995,0.195503416,0.234604096,0.625610924
0.342130995,0.195503416,0.254154444,0.625610924
0.342130995,0.195503416,0.234604096,0.615835762
0.361681342,0.205278587,0.234604096,0.625610924
0.342130995,0.234604096,0.234604096,0.635386086
0.361681342,0.234604096,0.224828935,0.674486828
0.371456504,0.224828935,0.224828935,0.664711666
0.361681342,0.234604096,0.234604096,0.694037151
0.361681342,0.234604096,0.224828935,0.694037151
0.361681342,0.224828935,0.224828935,0.723362684
0.351906157,0.224828935,0.224828935,0.723362684
0.342130995,0.215053773,0.215053773,0.703812313
0.332355833,0.215053773,0.215053773,0.68426199
0.332355833,0.224828935,0.224828935,0.694037151
0.332355833,0.215053773,0.224828935,0.703812313
0.332355833,0.215053773,0.215053773,0.733137846
0.342130995,0.205278587,0.215053773,0.713587475
0.342130995,0.205278587,0.215053773,0.723362684
0.332355833,0.195503416,0.215053773,0.772238493
0.332355833,0.195503416,0.234604096,0.772238493
0.342130995,0.195503416,0.215053773,0.742913008
0.342130995,0.195503416,0.215053773,0.742913008
0.361681342,0.195503416,0.205278587,0.762463331
0.391006832,0.195503416,0.205278587,0.742913008
0.400782013,0.195503416,0.195503416,0.723362684
0.391006832,0.195503416,0.205278587,0.703812313
0.38123167,0.205278587,0.205278587,0.742913008
0.38123167,0.215053773,0.195503416,0.752688169
0.38123167,0.215053773,0.185728254,0.762463331
0.391006832,0.215053773,0.195503416,0.762463331
0.391006832,0.215053773,0.195503416,0.742913008
0.371456504,0.215053773,0.185728254,0.752688169
0.371456504,0.215053773,0.185728254,0.772238493
0.361681342,0.215053773,0.185728254,0.762463331
0.391006832,0.224828935,0.185728254,0.733137846
0.391006832,0.215053773,0.185728254,0.703812313
0.391006832,0.215053773,0.185728254,0.674486828
0.38123167,0.215053773,0.185728254,0.654936409
0.391006832,0.215053773,0.205278587,0.625610924
0.38123167,0.215053773,0.215053773,0.625610924
0.400782013,0.215053773,0.244379282,0.635386086
0.391006832,0.215053773,0.244379282,0.625610924
0.391006832,0.234604096,0.254154444,0.596285439
0.38123167,0.244379282,0.244379282,0.576735067
0.38123167,0.244379282,0.234604096,0.576735067
0.371456504,0.234604096,0.234604096,0.615835762
0.38123167,0.234604096,0.234604096,0.6060606
0.371456504,0.234604096,0.234604096,0.6060606
0.371456504,0.224828935,0.224828935,0.586510229
0.371456504,0.244379282,0.234604096,0.576735067
0.391006832,0.263929605,0.234604096,0.576735067
0.469208193,0.273704791,0.244379282,0.586510229
0.478983355,0.273704791,0.244379282,0.586510229
0.478983355,0.273704791,0.254154444,0.566959906
0.469208193,0.263929605,0.254154444,0.586510229
0.478983355,0.263929605,0.244379282,0.566959906
0.478983355,0.254154444,0.234604096,0.615835762
0.498533726,0.244379282,0.234604096,0.635386086
0.527859211,0.244379282,0.224828935,0.645161247
0.527859211,0.244379282,0.234604096,0.635386086
0.508308887,0.244379282,0.234604096,0.635386086
0.53763442,0.234604096,0.244379282,0.6060606
0.53763442,0.244379282,0.234604096,0.615835762
0.566959906,0.244379282,0.234604096,0.596285439
0.547409582,0.244379282,0.224828935,0.586510229
0.576735067,0.254154444,0.234604096,0.576735067
0.586510229,0.263929605,0.244379282,0.566959906
0.635386086,0.273704791,0.234604096,0.566959906
0.733137846,0.273704791,0.234604096,0.547409582
0.723362684,0.273704791,0.224828935,0.527859211
0.742913008,0.273704791,0.215053773,0.518084049
0.742913008,0.293255119,0.205278587,0.508308887
0.742913008,0.293255119,0.205278587,0.508308887
0.713587475,0.3030303,0.215053773,0.498533726
0.752688169,0.293255119,0.205278587,0.488758564
0.869990253,0.293255119,0.195503416,0.488758564
0.899315739,0.293255119,0.195503416,0.478983355
0.879765415,0.293255119,0.205278587,0.459433031
0.948191547,0.3030303,0.205278587,0.459433031
1.016617775,0.332355833,0.224828935,0.478983355
1.016617775,0.322580624,0.224828935,0.488758564
1.006842613,0.342130995,0.224828935,0.469208193
0.997067451,0.371456504,0.234604096,0.459433031
0.948191547,0.391006832,0.224828935,0.449657869
0.918866062,0.391006832,0.215053773,0.420332336
0.957966709,0.38123167,0.205278587,0.420332336
1.006842613,0.400782013,0.205278587,0.391006832
0.997067451,0.430107546,0.205278587,0.38123167
0.967741871,0.410557175,0.205278587,0.371456504
0.948191547,0.400782013,0.205278587,0.371456504
0.957966709,0.430107546,0.215053773,0.38123167
0.918866062,0.430107546,0.215053773,0.400782013
0.879765415,0.449657869,0.215053773,0.391006832
0.918866062,0.459433031,0.224828935,0.410557175
0.938416386,0.449657869,0.224828935,0.410557175
0.918866062,0.459433031,0.215053773,0.400782013
0.879765415,0.439882708,0.224828935,0.391006832
0.879765415,0.439882708,0.224828935,0.371456504
0.9090909,0.439882708,0.224828935,0.371456504
0.9090909,0.430107546,0.234604096,0.38123167
0.889540577,0.439882708,0.234604096,0.391006832
0.869990253,0.439882708,0.244379282,0.38123167
0.869990253,0.459433031,0.254154444,0.371456504
0.879765415,0.488758564,0.254154444,0.371456504
0.860215092,0.508308887,0.254154444,0.361681342
0.860215092,0.498533726,0.254154444,0.351906157
0.879765415,0.508308887,0.263929605,0.332355833
0.869990253,0.518084049,0.254154444,0.342130995
0.869990253,0.508308887,0.254154444,0.351906157
0.879765415,0.488758564,0.244379282,0.38123167
0.879765415,0.508308887,0.234604096,0.410557175
0.869990253,0.53763442,0.234604096,0.410557175
0.85043993,0.53763442,0.244379282,0.410557175
0.899315739,0.547409582,0.244379282,0.400782013
0.860215092,0.547409582,0.244379282,0.400782013
0.85043993,0.53763442,0.244379282,0.391006832
0.869990253,0.566959906,0.244379282,0.38123167
0.889540577,0.6060606,0.244379282,0.400782013
0.899315739,0.615835762,0.224828935,0.449657869
0.918866062,0.615835762,0.234604096,0.498533726
0.9090909,0.615835762,0.215053773,0.498533726
0.869990253,0.615835762,0.234604096,0.488758564
0.869990253,0.596285439,0.234604096,0.469208193
0.860215092,0.576735067,0.234604096,0.449657869
0.821114349,0.566959906,0.234604096,0.430107546
0.811339188,0.566959906,0.234604096,0.420332336
0.840664673,0.547409582,0.224828935,0.400782013
0.840664673,0.547409582,0.224828935,0.391006832
0.840664673,0.547409582,0.234604096,0.371456504
0.811339188,0.53763442,0.224828935,0.391006832
0.791788864,0.566959906,0.224828935,0.391006832
0.762463331,0.586510229,0.234604096,0.400782013
0.762463331,0.596285439,0.224828935,0.400782013
0.723362684,0.596285439,0.234604096,0.391006832
0.752688169,0.586510229,0.234604096,0.391006832
0.762463331,0.586510229,0.234604096,0.400782013
0.762463331,0.566959906,0.234604096,0.391006832
0.752688169,0.576735067,0.234604096,0.38123167
0.733137846,0.6060606,0.224828935,0.361681342
0.723362684,0.615835762,0.234604096,0.351906157
0.752688169,0.6060606,0.215053773,0.332355833
0.752688169,0.6060606,0.224828935,0.332355833
0.733137846,0.6060606,0.224828935,0.332355833
0.713587475,0.6060606,0.224828935,0.332355833
0.713587475,0.654936409,0.234604096,0.332355833
0.752688169,0.645161247,0.224828935,0.351906157
0.752688169,0.654936409,0.234604096,0.342130995
0.733137846,0.635386086,0.234604096,0.361681342
0.723362684,0.664711666,0.234604096,0.351906157
0.713587475,0.694037151,0.234604096,0.342130995
0.723362684,0.742913008,0.234604096,0.332355833
0.703812313,0.762463331,0.224828935,0.332355833
0.674486828,0.801564026,0.224828935,0.322580624
0.674486828,0.821114349,0.215053773,0.332355833
0.664711666,0.791788864,0.215053773,0.322580624
0.645161247,0.811339188,0.224828935,0.322580624
0.625610924,0.830889511,0.224828935,0.312805462
0.6060606,0.899315739,0.224828935,0.3030303
0.6060606,0.899315739,0.215053773,0.3030303
0.615835762,0.860215092,0.224828935,0.3030303
0.615835762,0.879765415,0.215053773,0.3030303
0.6060606,0.879765415,0.215053773,0.3030303
0.6060606,0.9090909,0.215053773,0.293255119
0.596285439,0.918866062,0.205278587,0.293255119
0.625610924,0.967741871,0.215053773,0.293255119
0.615835762,0.977517128,0.205278587,0.283479958
0.596285439,0.948191547,0.205278587,0.283479958
0.586510229,0.948191547,0.205278587,0.283479958
0.576735067,0.997067451,0.205278587,0.283479958
0.547409582,1.016617775,0.195503416,0.283479958
0.557184744,0.977517128,0.195503416,0.283479958
0.576735067,1.016617775,0.185728254,0.283479958
0.596285439,1.055718422,0.175953078,0.293255119
0.596285439,1.006842613,0.175953078,0.293255119
0.576735067,0.977517128,0.175953078,0.283479958
0.576735067,0.948191547,0.185728254,0.283479958
0.566959906,0.967741871,0.185728254,0.283479958
0.53763442,0.948191547,0.185728254,0.283479958
0.527859211,0.938416386,0.185728254,0.273704791
0.557184744,0.928641224,0.175953078,0.273704791
0.566959906,0.918866062,0.185728254,0.263929605
0.566959906,0.928641224,0.175953078,0.263929605
0.566959906,1.026392937,0.175953078,0.254154444
0.547409582,1.04594326,0.175953078,0.263929605
0.527859211,1.04594326,0.166177917,0.273704791
0.518084049,1.026392937,0.166177917,0.263929605
0.527859211,1.006842613,0.166177917,0.273704791
0.518084049,1.016617775,0.166177917,0.3030303
0.508308887,1.016617775,0.166177917,0.3030303
0.498533726,1.016617775,0.156402731,0.3030303
0.488758564,0.98729229,0.156402731,0.3030303
0.488758564,0.967741871,0.156402731,0.312805462
0.498533726,0.948191547,0.156402731,0.3030303
0.527859211,0.928641224,0.156402731,0.293255119
0.547409582,0.928641224,0.156402731,0.312805462
0.53763442,0.918866062,0.166177917,0.312805462
0.518084049,0.899315739,0.185728254,0.3030303
0.508308887,0.860215092,0.185728254,0.3030303
0.488758564,0.85043993,0.185728254,0.312805462
0.478983355,0.830889511,0.195503416,0.293255119
0.469208193,0.811339188,0.215053773,0.283479958
0.488758564,0.811339188,0.205278587,0.273704791
0.488758564,0.830889511,0.205278587,0.263929605
0.478983355,0.821114349,0.205278587,0.273704791
0.459433031,0.801564026,0.205278587,0.293255119
0.459433031,0.782013655,0.205278587,0.3030303
0.449657869,0.752688169,0.195503416,0.312805462
0.449657869,0.752688169,0.205278587,0.312805462
0.488758564,0.752688169,0.195503416,0.322580624
0.488758564,0.752688169,0.185728254,0.322580624
0.478983355,0.733137846,0.185728254,0.322580624
0.469208193,0.723362684,0.195503416,0.3030303
0.459433031,0.723362684,0.195503416,0.293255119
0.459433031,0.694037151,0.195503416,0.293255119
0.439882708,0.742913008,0.195503416,0.283479958
0.430107546,0.713587475,0.195503416,0.273704791
0.439882708,0.723362684,0.185728254,0.273704791
0.420332336,0.723362684,0.185728254,0.273704791
0.400782013,0.733137846,0.185728254,0.273704791
0.391006832,0.713587475,0.195503416,0.254154444
0.38123167,0.742913008,0.185728254,0.254154444
0.391006832,0.782013655,0.195503416,0.263929605
0.430107546,0.782013655,0.195503416,0.254154444
0.439882708,0.752688169,0.185728254,0.263929605
0.430107546,0.782013655,0.195503416,0.263929605
0.420332336,0.762463331,0.195503416,0.254154444
0.410557175,0.742913008,0.185728254,0.254154444
0.410557175,0.742913008,0.195503416,0.263929605
0.391006832,0.742913008,0.185728254,0.254154444
0.371456504,0.742913008,0.195503416,0.263929605
0.361681342,0.723362684,0.195503416,0.254154444
0.351906157,0.703812313,0.195503416,0.263929605
0.351906157,0.694037151,0.185728254,0.273704791
0.342130995,0.674486828,0.185728254,0.263929605
0.342130995,0.664711666,0.185728254,0.263929605
0.342130995,0.645161247,0.185728254,0.273704791
0.342130995,0.645161247,0.185728254,0.263929605
0.332355833,0.635386086,0.195503416,0.273704791
0.322580624,0.6060606,0.195503416,0.283479958
0.322580624,0.596285439,0.185728254,0.273704791
0.312805462,0.586510229,0.185728254,0.273704791
0.312805462,0.566959906,0.175953078,0.283479958
0.3030303,0.576735067,0.185728254,0.273704791
0.3030303,0.576735067,0.185728254,0.273704791
0.312805462,0.566959906,0.185728254,0.283479958
0.322580624,0.557184744,0.185728254,0.283479958
0.312805462,0.576735067,0.185728254,0.283479958
0.312805462,0.576735067,0.195503416,0.283479958
0.312805462,0.6060606,0.195503416,0.283479958
0.3030303,0.6060606,0.175953078,0.293255119
0.293255119,0.596285439,0.175953078,0.293255119
0.283479958,0.6060606,0.166177917,0.283479958
0.283479958,0.6060606,0.166177917,0.283479958
0.283479958,0.596285439,0.156402731,0.273704791
0.273704791,0.586510229,0.156402731,0.273704791
0.273704791,0.6060606,0.156402731,0.263929605
0.273704791,0.615835762,0.14662756,0.263929605
0.273704791,0.625610924,0.14662756,0.254154444
0.293255119,0.625610924,0.14662756,0.254154444
0.293255119,0.625610924,0.14662756,0.254154444
0.293255119,0.6060606,0.175953078,0.244379282
0.283479958,0.586510229,0.166177917,0.254154444
0.283479958,0.566959906,0.14662756,0.254154444
0.283479958,0.566959906,0.14662756,0.254154444
0.273704791,0.557184744,0.156402731,0.244379282
0.273704791,0.576735067,0.156402731,0.244379282
0.273704791,0.566959906,0.14662756,0.234604096
0.263929605,0.586510229,0.14662756,0.224828935
0.263929605,0.576735067,0.14662756,0.215053773
0.283479958,0.557184744,0.14662756,0.205278587
0.283479958,0.53763442,0.14662756,0.205278587
0.283479958,0.53763442,0.166177917,0.215053773
0.283479958,0.53763442,0.156402731,0.205278587
0.273704791,0.527859211,0.156402731,0.205278587
0.263929605,0.508308887,0.156402731,0.205278587
0.263929605,0.508308887,0.156402731,0.205278587
0.263929605,0.547409582,0.156402731,0.205278587
0.263929605,0.547409582,0.156402731,0.195503416
0.263929605,0.518084049,0.156402731,0.205278587
0.254154444,0.508308887,0.156402731,0.215053773
0.254154444,0.508308887,0.156402731,0.205278587
0.244379282,0.527859211,0.156402731,0.195503416
0.234604096,0.518084049,0.156402731,0.195503416
0.234604096,0.498533726,0.156402731,0.195503416
0.224828935,0.478983355,0.14662756,0.195503416
0.224828935,0.488758564,0.14662756,0.185728254
0.224828935,0.469208193,0.14662756,0.185728254
0.224828935,0.478983355,0.156402731,0.195503416
0.215053773,0.488758564,0.156402731,0.205278587
0.215053773,0.478983355,0.166177917,0.195503416
0.215053773,0.498533726,0.156402731,0.195503416
0.215053773,0.508308887,0.166177917,0.195503416
0.205278587,0.498533726,0.166177917,0.205278587
0.205278587,0.478983355,0.175953078,0.205278587
0.205278587,0.478983355,0.166177917,0.205278587
0.215053773,0.469208193,0.175953078,0.205278587
0.215053773,0.469208193,0.175953078,0.205278587
0.205278587,0.459433031,0.175953078,0.215053773
0.205278587,0.459433031,0.175953078,0.224828935
0.205278587,0.459433031,0.166177917,0.215053773
0.195503416,0.488758564,0.166177917,0.215053773
0.205278587,0.488758564,0.166177917,0.215053773
0.205278587,0.508308887,0.166177917,0.215053773
0.195503416,0.498533726,0.156402731,0.215053773
0.195503416,0.478983355,0.156402731,0.215053773
0.195503416,0.469208193,0.156402731,0.215053773
0.185728254,0.449657869,0.175953078,0.215053773
0.185728254,0.459433031,0.185728254,0.215053773
0.185728254,0.469208193,0.185728254,0.205278587
0.185728254,0.459433031,0.195503416,0.195503416
0.195503416,0.459433031,0.205278587,0.195503416
0.205278587,0.449657869,0.195503416,0.195503416
0.205278587,0.449657869,0.205278587,0.195503416
0.205278587,0.469208193,0.234604096,0.195503416
0.195503416,0.488758564,0.234604096,0.195503416
0.185728254,0.478983355,0.224828935,0.195503416
0.185728254,0.488758564,0.224828935,0.195503416
0.175953078,0.508308887,0.224828935,0.195503416
0.175953078,0.508308887,0.254154444,0.205278587
0.185728254,0.498533726,0.263929605,0.215053773
0.175953078,0.498533726,0.283479958,0.224828935
0.185728254,0.508308887,0.273704791,0.224828935
0.175953078,0.498533726,0.273704791,0.215053773
0.175953078,0.488758564,0.273704791,0.215053773
0.175953078,0.488758564,0.293255119,0.205278587
0.166177917,0.469208193,0.283479958,0.195503416
0.166177917,0.459433031,0.312805462,0.195503416
0.166177917,0.439882708,0.391006832,0.185728254
0.175953078,0.430107546,0.410557175,0.185728254
0.175953078,0.439882708,0.430107546,0.185728254
0.175953078,0.469208193,0.449657869,0.195503416
0.175953078,0.459433031,0.459433031,0.195503416
0.175953078,0.449657869,0.469208193,0.215053773
0.185728254,0.478983355,0.449657869,0.205278587
0.185728254,0.498533726,0.459433031,0.195503416
0.195503416,0.478983355,0.469208193,0.195503416
0.205278587,0.469208193,0.478983355,0.195503416
0.215053773,0.478983355,0.488758564,0.205278587
0.215053773,0.459433031,0.478983355,0.195503416
0.205278587,0.459433031,0.478983355,0.195503416
0.205278587,0.498533726,0.469208193,0.195503416
0.205278587,0.488758564,0.459433031,0.195503416
0.195503416,0.469208193,0.478983355,0.185728254
0.195503416,0.459433031,0.498533726,0.185728254
0.185728254,0.449657869,0.508308887,0.195503416
0.195503416,0.430107546,0.518084049,0.195503416
0.205278587,0.410557175,0.557184744,0.195503416
0.215053773,0.400782013,0.547409582,0.205278587
0.215053773,0.38123167,0.547409582,0.205278587
0.215053773,0.391006832,0.53763442,0.205278587
0.205278587,0.410557175,0.576735067,0.205278587
0.205278587,0.410557175,0.596285439,0.224828935
0.205278587,0.391006832,0.566959906,0.224828935
0.205278587,0.38123167,0.557184744,0.234604096
0.195503416,0.371456504,0.557184744,0.234604096
0.195503416,0.361681342,0.596285439,0.244379282
0.195503416,0.342130995,0.586510229,0.254154444
0.205278587,0.342130995,0.635386086,0.254154444
0.195503416,0.332355833,0.68426199,0.254154444
0.185728254,0.332355833,0.654936409,0.273704791
0.185728254,0.322580624,0.654936409,0.263929605
0.185728254,0.312805462,0.635386086,0.273704791
0.185728254,0.322580624,0.615835762,0.263929605
0.175953078,0.312805462,0.615835762,0.273704791
0.195503416,0.322580624,0.6060606,0.273704791
0.195503416,0.312805462,0.576735067,0.273704791
0.195503416,0.312805462,0.576735067,0.273704791
0.195503416,0.312805462,0.586510229,0.263929605
0.185728254,0.312805462,0.625610924,0.273704791
0.185728254,0.312805462,0.635386086,0.263929605
0.195503416,0.312805462,0.635386086,0.273704791
0.195503416,0.293255119,0.664711666,0.273704791
0.195503416,0.283479958,0.674486828,0.273704791
0.205278587,0.293255119,0.654936409,0.273704791
0.205278587,0.312805462,0.654936409,0.263929605
0.205278587,0.322580624,0.664711666,0.273704791
0.205278587,0.332355833,0.68426199,0.283479958
0.205278587,0.342130995,0.68426199,0.273704791
0.195503416,0.332355833,0.694037151,0.283479958
0.195503416,0.322580624,0.674486828,0.283479958
0.195503416,0.312805462,0.654936409,0.273704791
0.185728254,0.312805462,0.654936409,0.273704791
0.185728254,0.312805462,0.654936409,0.273704791
0.185728254,0.322580624,0.645161247,0.273704791
0.195503416,0.312805462,0.694037151,0.273704791
0.185728254,0.3030303,0.762463331,0.263929605
0.175953078,0.293255119,0.879765415,0.263929605
0.175953078,0.293255119,0.899315739,0.254154444
0.175953078,0.293255119,0.889540577,0.254154444
0.175953078,0.293255119,0.899315739,0.244379282
0.166177917,0.283479958,0.967741871,0.244379282
0.166177917,0.283479958,0.948191547,0.244379282
0.156402731,0.283479958,0.918866062,0.254154444
0.156402731,0.283479958,0.889540577,0.263929605
0.156402731,0.283479958,0.899315739,0.254154444
0.156402731,0.273704791,0.869990253,0.263929605
0.156402731,0.263929605,0.830889511,0.254154444
0.166177917,0.273704791,0.879765415,0.263929605
0.156402731,0.273704791,1.026392937,0.254154444
0.166177917,0.283479958,1.026392937,0.244379282
0.156402731,0.283479958,1.04594326,0.234604096
0.156402731,0.263929605,1.026392937,0.254154444
0.166177917,0.263929605,1.036168098,0.263929605
0.166177917,0.273704791,0.997067451,0.263929605
0.166177917,0.273704791,0.948191547,0.263929605
0.166177917,0.273704791,0.918866062,0.254154444
0.166177917,0.273704791,0.889540577,0.254154444
0.166177917,0.273704791,0.869990253,0.254154444
0.166177917,0.273704791,0.928641224,0.244379282
0.175953078,0.293255119,1.026392937,0.244379282
0.175953078,0.283479958,1.026392937,0.254154444
0.175953078,0.283479958,1.026392937,0.244379282
0.166177917,0.273704791,1.04594326,0.244379282
0.175953078,0.273704791,1.055718422,0.234604096
0.175953078,0.273704791,1.055718422,0.244379282
0.185728254,0.273704791,1.006842613,0.234604096
0.185728254,0.263929605,1.055718422,0.234604096
0.185728254,0.263929605,1.075268865,0.244379282
0.175953078,0.273704791,1.065493703,0.224828935
0.185728254,0.283479958,1.055718422,0.224828935
0.185728254,0.3030303,1.055718422,0.224828935
0.195503416,0.312805462,1.065493703,0.215053773
0.195503416,0.312805462,1.055718422,0.215053773
0.195503416,0.332355833,1.055718422,0.205278587
0.195503416,0.332355833,1.04594326,0.205278587
0.195503416,0.322580624,1.124144673,0.205278587
0.195503416,0.312805462,1.10459435,0.195503416
0.185728254,0.312805462,1.085044022,0.185728254
0.185728254,0.312805462,1.133919835,0.215053773
0.175953078,0.312805462,1.270772219,0.234604096
0.175953078,0.312805462,1.241446733,0.244379282
0.175953078,0.3030303,1.182795639,0.234604096
0.175953078,0.3030303,1.231671572,0.224828935
0.166177917,0.3030303,1.358748794,0.224828935
0.175953078,0.293255119,1.319648147,0.215053773
0.175953078,0.322580624,1.309872866,0.215053773
0.166177917,0.332355833,1.309872866,0.205278587
0.175953078,0.322580624,1.378299117,0.205278587
0.175953078,0.312805462,1.378299117,0.205278587
0.175953078,0.312805462,1.378299117,0.205278587
0.175953078,0.322580624,1.446725368,0.215053773
0.185728254,0.322580624,1.554252148,0.215053773
0.195503416,0.322580624,1.515151501,0.215053773
0.185728254,0.322580624,1.45650053,0.215053773
0.185728254,0.322580624,1.485826015,0.205278587
0.185728254,0.3030303,1.485826015,0.205278587
0.175953078,0.312805462,1.476050854,0.195503416
0.175953078,0.3030303,1.42717495,0.195503416
0.185728254,0.3030303,1.45650053,0.195503416
0.185728254,0.312805462,1.45650053,0.195503416
0.185728254,0.312805462,1.505376339,0.185728254
0.185728254,0.312805462,1.476050854,0.185728254
0.185728254,0.3030303,1.495601177,0.185728254
0.185728254,0.293255119,1.515151501,0.175953078
0.185728254,0.293255119,1.524926662,0.185728254
0.195503416,0.283479958,1.476050854,0.195503416
0.195503416,0.293255119,1.45650053,0.195503416
0.195503416,0.3030303,1.446725368,0.195503416
0.195503416,0.293255119,1.544476986,0.185728254
0.185728254,0.283479958,1.515151501,0.185728254
0.185728254,0.283479958,1.485826015,0.185728254
0.195503416,0.293255119,1.45650053,0.195503416
0.195503416,0.283479958,1.436950111,0.215053773
0.195503416,0.293255119,1.368523955,0.215053773
0.195503416,0.293255119,1.329423308,0.215053773
0.205278587,0.283479958,1.388074284,0.205278587
0.195503416,0.283479958,1.505376339,0.195503416
0.205278587,0.273704791,1.466275692,0.205278587
0.205278587,0.273704791,1.42717495,0.195503416
0.205278587,0.283479958,1.466275692,0.195503416
0.205278587,0.283479958,1.524926662,0.195503416
0.215053773,0.273704791,1.476050854,0.195503416
0.205278587,0.283479958,1.436950111,0.195503416
0.205278587,0.283479958,1.388074284,0.205278587
0.195503416,0.293255119,1.368523955,0.215053773
0.195503416,0.283479958,1.378299117,0.215053773
0.195503416,0.283479958,1.33919847,0.195503416
0.215053773,0.273704791,1.329423308,0.195503416
0.215053773,0.273704791,1.309872866,0.185728254
0.215053773,0.263929605,1.290322542,0.185728254
0.205278587,0.263929605,1.290322542,0.175953078
0.205278587,0.283479958,1.270772219,0.175953078
0.215053773,0.283479958,1.260997057,0.175953078
0.215053773,0.283479958,1.28054738,0.166177917
0.215053773,0.283479958,1.290322542,0.166177917
0.215053773,0.273704791,1.388074284,0.166177917
0.205278587,0.254154444,1.436950111,0.156402731
0.205278587,0.263929605,1.368523955,0.166177917
0.195503416,0.273704791,1.358748794,0.166177917
0.195503416,0.263929605,1.397849445,0.166177917
0.185728254,0.263929605,1.524926662,0.175953078
0.175953078,0.254154444,1.534701824,0.175953078
0.175953078,0.263929605,1.466275692,0.175953078
0.185728254,0.254154444,1.466275692,0.215053773
0.175953078,0.254154444,1.534701824,0.215053773
0.175953078,0.273704791,1.59335289,0.215053773
0.175953078,0.263929605,1.583577728,0.215053773
0.166177917,0.254154444,1.524926662,0.205278587
0.156402731,0.263929605,1.485826015,0.215053773
0.166177917,0.263929605,1.446725368,0.215053773
0.166177917,0.263929605,1.397849445,0.205278587
0.166177917,0.263929605,1.33919847,0.205278587
0.156402731,0.254154444,1.300097704,0.205278587
0.156402731,0.244379282,1.251221895,0.205278587
0.156402731,0.234604096,1.202346087,0.205278587
0.156402731,0.234604096,1.16324532,0.205278587
0.14662756,0.234604096,1.10459435,0.234604096
0.156402731,0.234604096,1.143694997,0.234604096
0.156402731,0.224828935,1.10459435,0.234604096
0.156402731,0.215053773,1.065493703,0.254154444
0.166177917,0.215053773,1.036168098,0.254154444
0.166177917,0.215053773,1.04594326,0.254154444
0.175953078,0.224828935,1.065493703,0.244379282
0.175953078,0.224828935,1.04594326,0.244379282
0.175953078,0.234604096,1.036168098,0.244379282
0.175953078,0.224828935,0.997067451,0.244379282
0.166177917,0.224828935,0.967741871,0.244379282
0.175953078,0.224828935,1.016617775,0.244379282
0.175953078,0.224828935,1.114369512,0.234604096
0.175953078,0.215053773,1.10459435,0.244379282
0.185728254,0.224828935,1.065493703,0.244379282
0.195503416,0.224828935,1.016617775,0.234604096
0.195503416,0.215053773,0.977517128,0.224828935
0.185728254,0.224828935,0.938416386,0.224828935
0.185728254,0.215053773,0.9090909,0.215053773
0.185728254,0.215053773,0.869990253,0.215053773
0.185728254,0.215053773,0.840664673,0.224828935
0.185728254,0.215053773,0.801564026,0.215053773
0.175953078,0.215053773,0.811339188,0.205278587
0.175953078,0.215053773,0.772238493,0.205278587
0.175953078,0.215053773,0.752688169,0.205278587
0.175953078,0.215053773,0.772238493,0.205278587
0.175953078,0.215053773,0.821114349,0.195503416
0.195503416,0.215053773,0.879765415,0.195503416
0.185728254,0.215053773,0.889540577,0.195503416
0.185728254,0.215053773,0.85043993,0.195503416
0.185728254,0.215053773,0.821114349,0.195503416
0.185728254,0.244379282,0.811339188,0.195503416
0.175953078,0.244379282,0.801564026,0.185728254
0.195503416,0.244379282,0.791788864,0.185728254
0.195503416,0.244379282,0.782013655,0.195503416
0.185728254,0.244379282,0.811339188,0.195503416
0.195503416,0.244379282,0.821114349,0.205278587
0.185728254,0.254154444,0.830889511,0.215053773
0.195503416,0.263929605,0.830889511,0.205278587
0.205278587,0.273704791,0.801564026,0.195503416
0.205278587,0.283479958,0.762463331,0.185728254
0.195503416,0.283479958,0.733137846,0.185728254
0.205278587,0.273704791,0.762463331,0.175953078
0.205278587,0.263929605,0.723362684,0.175953078
0.195503416,0.263929605,0.723362684,0.175953078
0.195503416,0.273704791,0.713587475,0.175953078
0.195503416,0.263929605,0.703812313,0.175953078
0.195503416,0.283479958,0.674486828,0.175953078
0.195503416,0.293255119,0.664711666,0.175953078
0.205278587,0.283479958,0.664711666,0.166177917
0.195503416,0.273704791,0.674486828,0.166177917
0.205278587,0.283479958,0.674486828,0.166177917
0.195503416,0.273704791,0.645161247,0.166177917
0.205278587,0.293255119,0.635386086,0.156402731
0.205278587,0.293255119,0.625610924,0.166177917
0.205278587,0.283479958,0.645161247,0.166177917
0.195503416,0.273704791,0.635386086,0.175953078
0.215053773,0.273704791,0.635386086,0.185728254
0.205278587,0.273704791,0.625610924,0.185728254
0.205278587,0.273704791,0.6060606,0.195503416
0.195503416,0.273704791,0.586510229,0.185728254
0.205278587,0.263929605,0.576735067,0.185728254
0.195503416,0.263929605,0.557184744,0.185728254
0.195503416,0.263929605,0.547409582,0.185728254
0.195503416,0.263929605,0.557184744,0.185728254
0.195503416,0.254154444,0.557184744,0.185728254
0.195503416,0.244379282,0.547409582,0.195503416
0.185728254,0.244379282,0.518084049,0.205278587
0.185728254,0.234604096,0.518084049,0.205278587
0.185728254,0.234604096,0.508308887,0.205278587
0.175953078,0.263929605,0.488758564,0.195503416
0.175953078,0.273704791,0.488758564,0.195503416
0.185728254,0.273704791,0.488758564,0.195503416
0.195503416,0.263929605,0.459433031,0.195503416
0.195503416,0.263929605,0.449657869,0.205278587
0.195503416,0.254154444,0.430107546,0.205278587
0.185728254,0.254154444,0.420332336,0.205278587
0.185728254,0.263929605,0.410557175,0.195503416
0.185728254,0.263929605,0.449657869,0.195503416
0.175953078,0.263929605,0.439882708,0.195503416
0.175953078,0.263929605,0.430107546,0.195503416
0.175953078,0.254154444,0.420332336,0.185728254
0.175953078,0.254154444,0.410557175,0.195503416
0.175953078,0.244379282,0.391006832,0.195503416
0.175953078,0.254154444,0.391006832,0.195503416
0.166177917,0.254154444,0.391006832,0.205278587
0.166177917,0.254154444,0.38123167,0.205278587
0.166177917,0.254154444,0.400782013,0.215053773
0.166177917,0.244379282,0.400782013,0.205278587
0.166177917,0.244379282,0.391006832,0.195503416
0.156402731,0.234604096,0.391006832,0.205278587
0.166177917,0.234604096,0.371456504,0.205278587
0.156402731,0.234604096,0.361681342,0.215053773
0.156402731,0.234604096,0.361681342,0.215053773
0.156402731,0.224828935,0.351906157,0.205278587
0.14662756,0.224828935,0.351906157,0.205278587
0.14662756,0.234604096,0.342130995,0.215053773
0.14662756,0.254154444,0.342130995,0.224828935
0.14662756,0.254154444,0.342130995,0.215053773
0.156402731,0.254154444,0.342130995,0.205278587
0.14662756,0.254154444,0.342130995,0.195503416
0.14662756,0.244379282,0.351906157,0.195503416
0.156402731,0.244379282,0.351906157,0.185728254
0.14662756,0.234604096,0.361681342,0.185728254
0.14662756,0.234604096,0.361681342,0.185728254
0.14662756,0.224828935,0.351906157,0.185728254
0.14662756,0.224828935,0.351906157,0.185728254
0.14662756,0.215053773,0.351906157,0.185728254
0.14662756,0.215053773,0.351906157,0.175953078
0.14662756,0.224828935,0.342130995,0.185728254
0.14662756,0.224828935,0.342130995,0.185728254
0.136852396,0.224828935,0.332355833,0.185728254
0.136852396,0.215053773,0.342130995,0.175953078
0.14662756,0.224828935,0.332355833,0.185728254
0.14662756,0.224828935,0.342130995,0.195503416
0.14662756,0.224828935,0.351906157,0.195503416
0.14662756,0.234604096,0.371456504,0.224828935
0.156402731,0.224828935,0.371456504,0.224828935
0.156402731,0.224828935,0.38123167,0.244379282
0.156402731,0.215053773,0.371456504,0.263929605
0.156402731,0.224828935,0.371456504,0.263929605
0.156402731,0.224828935,0.361681342,0.263929605
0.166177917,0.215053773,0.361681342,0.254154444
0.166177917,0.215053773,0.361681342,0.244379282
0.166177917,0.205278587,0.371456504,0.234604096
0.166177917,0.205278587,0.38123167,0.234604096
0.166177917,0.205278587,0.371456504,0.234604096
0.166177917,0.205278587,0.361681342,0.244379282
0.175953078,0.205278587,0.361681342,0.244379282
0.175953078,0.195503416,0.342130995,0.234604096
0.166177917,0.195503416,0.351906157,0.224828935
0.166177917,0.195503416,0.342130995,0.234604096
0.156402731,0.195503416,0.332355833,0.244379282
0.156402731,0.195503416,0.332355833,0.234604096
0.166177917,0.185728254,0.332355833,0.234604096
0.166177917,0.185728254,0.342130995,0.234604096
0.166177917,0.205278587,0.332355833,0.234604096
0.166177917,0.205278587,0.322580624,0.215053773
0.166177917,0.205278587,0.312805462,0.224828935
0.166177917,0.205278587,0.312805462,0.215053773
0.166177917,0.195503416,0.3030303,0.215053773
0.166177917,0.195503416,0.3030303,0.205278587
0.156402731,0.195503416,0.3030303,0.205278587
0.156402731,0.205278587,0.312805462,0.205278587
0.156402731,0.215053773,0.3030303,0.205278587
0.156402731,0.234604096,0.312805462,0.205278587
0.156402731,0.234604096,0.322580624,0.195503416
0.156402731,0.224828935,0.312805462,0.205278587
0.156402731,0.234604096,0.293255119,0.215053773
0.156402731,0.224828935,0.293255119,0.205278587
0.156402731,0.215053773,0.293255119,0.215053773
0.156402731,0.215053773,0.3030303,0.215053773
0.156402731,0.215053773,0.3030303,0.234604096
0.156402731,0.215053773,0.293255119,0.224828935
0.166177917,0.205278587,0.293255119,0.234604096
0.166177917,0.205278587,0.293255119,0.244379282
0.166177917,0.195503416,0.3030303,0.244379282
0.166177917,0.195503416,0.3030303,0.263929605
0.166177917,0.195503416,0.312805462,0.254154444
0.166177917,0.195503416,0.312805462,0.263929605
0.175953078,0.195503416,0.322580624,0.263929605
0.166177917,0.195503416,0.322580624,0.263929605
0.166177917,0.205278587,0.332355833,0.263929605
0.175953078,0.215053773,0.332355833,0.254154444
0.175953078,0.215053773,0.322580624,0.254154444
0.175953078,0.215053773,0.332355833,0.254154444
0.175953078,0.205278587,0.38123167,0.273704791
0.166177917,0.205278587,0.391006832,0.273704791
0.166177917,0.205278587,0.391006832,0.273704791
0.175953078,0.215053773,0.38123167,0.283479958
0.175953078,0.205278587,0.361681342,0.283479958
0.185728254,0.215053773,0.361681342,0.283479958
0.185728254,0.195503416,0.351906157,0.283479958
0.185728254,0.195503416,0.342130995,0.273704791
0.185728254,0.205278587,0.342130995,0.273704791
0.195503416,0.215053773,0.342130995,0.263929605
0.195503416,0.215053773,0.332355833,0.273704791
0.205278587,0.224828935,0.332355833,0.293255119
0.205278587,0.224828935,0.332355833,0.283479958
0.215053773,0.215053773,0.342130995,0.312805462
0.215053773,0.224828935,0.342130995,0.3030303
0.215053773,0.224828935,0.332355833,0.3030303
0.215053773,0.215053773,0.332355833,0.293255119
0.215053773,0.224828935,0.351906157,0.312805462
0.215053773,0.224828935,0.342130995,0.312805462
0.215053773,0.215053773,0.332355833,0.332355833
0.215053773,0.224828935,0.322580624,0.342130995
0.215053773,0.224828935,0.312805462,0.351906157
0.215053773,0.224828935,0.3030303,0.371456504
0.215053773,0.224828935,0.322580624,0.371456504
0.215053773,0.224828935,0.312805462,0.391006832
0.215053773,0.224828935,0.3030303,0.400782013
0.215053773,0.224828935,0.3030303,0.400782013
0.205278587,0.244379282,0.3030303,0.391006832
0.195503416,0.234604096,0.3030303,0.371456504
0.195503416,0.224828935,0.3030303,0.410557175
0.195503416,0.224828935,0.3030303,0.410557175
0.195503416,0.224828935,0.3030303,0.400782013
0.185728254,0.224828935,0.293255119,0.420332336
0.175953078,0.224828935,0.3030303,0.430107546
0.175953078,0.224828935,0.312805462,0.439882708
0.175953078,0.234604096,0.312805462,0.449657869
0.175953078,0.234604096,0.312805462,0.469208193
0.185728254,0.244379282,0.312805462,0.459433031
0.175953078,0.234604096,0.3030303,0.469208193
0.175953078,0.234604096,0.3030303,0.508308887
0.175953078,0.234604096,0.293255119,0.508308887
0.175953078,0.234604096,0.293255119,0.498533726
0.175953078,0.224828935,0.283479958,0.488758564
0.175953078,0.215053773,0.283479958,0.488758564
0.166177917,0.215053773,0.3030303,0.518084049
0.166177917,0.205278587,0.3030303,0.498533726
0.166177917,0.205278587,0.293255119,0.508308887
0.166177917,0.215053773,0.312805462,0.498533726
0.156402731,0.215053773,0.332355833,0.508308887
0.156402731,0.205278587,0.322580624,0.53763442
0.156402731,0.205278587,0.312805462,0.53763442
0.156402731,0.195503416,0.3030303,0.53763442
0.156402731,0.205278587,0.3030303,0.557184744
0.156402731,0.205278587,0.293255119,0.586510229
0.166177917,0.205278587,0.293255119,0.625610924
0.166177917,0.205278587,0.293255119,0.596285439
0.166177917,0.205278587,0.293255119,0.576735067
0.166177917,0.195503416,0.283479958,0.615835762
0.156402731,0.195503416,0.283479958,0.6060606
0.156402731,0.195503416,0.273704791,0.654936409
0.156402731,0.195503416,0.283479958,0.654936409
0.156402731,0.215053773,0.283479958,0.645161247
0.14662756,0.205278587,0.293255119,0.664711666
0.14662756,0.205278587,0.293255119,0.694037151
0.14662756,0.205278587,0.3030303,0.674486828
0.14662756,0.195503416,0.293255119,0.674486828
0.14662756,0.195503416,0.293255119,0.645161247
0.14662756,0.195503416,0.283479958,0.645161247
0.156402731,0.195503416,0.283479958,0.625610924
0.156402731,0.195503416,0.283479958,0.615835762
0.156402731,0.195503416,0.293255119,0.635386086
0.156402731,0.205278587,0.3030303,0.615835762
0.156402731,0.205278587,0.293255119,0.6060606
0.166177917,0.215053773,0.312805462,0.586510229
0.175953078,0.215053773,0.3030303,0.586510229
0.175953078,0.215053773,0.293255119,0.566959906
0.185728254,0.205278587,0.283479958,0.576735067
0.185728254,0.205278587,0.293255119,0.576735067
0.185728254,0.195503416,0.3030303,0.586510229
0.175953078,0.205278587,0.293255119,0.596285439
0.166177917,0.195503416,0.283479958,0.596285439
0.175953078,0.215053773,0.293255119,0.596285439
0.185728254,0.215053773,0.283479958,0.6060606
0.175953078,0.224828935,0.273704791,0.654936409
0.185728254,0.215053773,0.283479958,0.635386086
0.185728254,0.224828935,0.283479958,0.694037151
0.195503416,0.215053773,0.293255119,0.694037151
0.195503416,0.215053773,0.293255119,0.733137846
0.195503416,0.224828935,0.283479958,0.723362684
0.185728254,0.224828935,0.283479958,0.694037151
0.185728254,0.224828935,0.283479958,0.703812313
0.175953078,0.234604096,0.273704791,0.694037151
0.185728254,0.234604096,0.273704791,0.703812313
0.185728254,0.224828935,0.273704791,0.664711666
0.195503416,0.215053773,0.263929605,0.664711666
0.195503416,0.215053773,0.273704791,0.645161247
0.195503416,0.215053773,0.273704791,0.625610924
0.185728254,0.224828935,0.283479958,0.6060606
0.185728254,0.224828935,0.283479958,0.586510229
0.185728254,0.215053773,0.293255119,0.586510229
0.185728254,0.215053773,0.283479958,0.586510229
0.185728254,0.224828935,0.283479958,0.576735067
0.195503416,0.215053773,0.283479958,0.557184744
0.195503416,0.215053773,0.273704791,0.576735067
