0.078201365,0.263929605,0.400782013,0.410557175
1.642228699,2.2091887,2.551319599,2.326490641
1.681329346,2.258064508,2.629521132,2.336265802
1.603128052,2.170088053,2.482893467,2.238514185
1.505376339,2.052785873,2.346040964,2.140762568
1.417399788,1.935483837,2.218963861,2.043010712
1.329423308,1.827957058,2.101661682,1.955034256
1.251221895,1.730205297,1.994134903,1.83773222
1.182795639,1.642228699,1.915933514,1.749755621
1.114369512,1.554252148,1.857282543,1.69110465
1.055718422,1.485826015,1.769305944,1.642228699
0.98729229,1.407624626,1.681329346,1.583577728
0.928641224,1.33919847,1.59335289,1.505376339
0.879765415,1.260997057,1.524926662,1.436950111
0.830889511,1.212121248,1.45650053,1.368523955
0.782013655,1.133919835,1.397849445,1.300097704
0.742913008,1.085044022,1.329423308,1.270772219
0.703812313,1.026392937,1.270772219,1.251221895
0.664711666,0.977517128,1.241446733,1.22189641
0.625610924,0.928641224,1.182795639,1.182795639
0.596285439,0.899315739,1.124144673,1.143694997
0.566959906,0.869990253,1.075268865,1.094819183
0.53763442,0.85043993,1.04594326,1.085044022
0.508308887,0.821114349,1.006842613,1.075268865
0.478983355,0.782013655,1.026392937,1.065493703
0.449657869,0.752688169,0.997067451,1.036168098
0.430107546,0.733137846,0.967741871,0.997067451
0.410557175,0.694037151,0.9090909,0.957966709
0.391006832,0.664711666,0.889540577,0.928641224
0.371456504,0.645161247,0.85043993,0.899315739
0.351906157,0.625610924,0.801564026,0.889540577
0.332355833,0.596285439,0.772238493,0.879765415
0.322580624,0.576735067,0.733137846,0.899315739
0.3030303,0.547409582,0.713587475,0.879765415
0.293255119,0.518084049,0.68426199,0.860215092
0.273704791,0.498533726,0.674486828,0.821114349
0.263929605,0.478983355,0.654936409,0.782013655
0.254154444,0.469208193,0.625610924,0.762463331
0.244379282,0.449657869,0.596285439,0.742913008
0.234604096,0.430107546,0.576735067,0.733137846
0.224828935,0.410557175,0.566959906,0.713587475
0.215053773,0.391006832,0.547409582,0.713587475
0.205278587,0.371456504,0.527859211,0.713587475
0.205278587,0.351906157,0.518084049,0.723362684
0.195503416,0.342130995,0.498533726,0.713587475
0.185728254,0.322580624,0.508308887,0.68426199
0.175953078,0.312805462,0.498533726,0.674486828
0.166177917,0.322580624,0.498533726,0.654936409
0.166177917,0.312805462,0.518084049,0.625610924
0.156402731,0.312805462,0.518084049,0.615835762
0.156402731,0.3030303,0.498533726,0.586510229
0.14662756,0.3030303,0.478983355,0.576735067
0.14662756,0.293255119,0.459433031,0.547409582
0.136852396,0.293255119,0.439882708,0.527859211
0.136852396,0.293255119,0.420332336,0.527859211
0.136852396,0.283479958,0.400782013,0.508308887
0.127077222,0.283479958,0.38123167,0.518084049
0.127077222,0.273704791,0.371456504,0.53763442
0.117302048,0.273704791,0.361681342,0.557184744
0.117302048,0.273704791,0.351906157,0.53763442
0.117302048,0.263929605,0.342130995,0.508308887
0.117302048,0.273704791,0.322580624,0.498533726
0.117302048,0.273704791,0.342130995,0.498533726
0.117302048,0.263929605,0.332355833,0.508308887
0.107526886,0.254154444,0.322580624,0.53763442
0.107526886,0.244379282,0.332355833,0.527859211
0.107526886,0.244379282,0.322580624,0.527859211
0.107526886,0.244379282,0.312805462,0.53763442
0.107526886,0.244379282,0.3030303,0.547409582
0.097751703,0.244379282,0.3030303,0.566959906
0.097751703,0.234604096,0.312805462,0.547409582
0.097751703,0.224828935,0.293255119,0.547409582
0.087976542,0.215053773,0.293255119,0.527859211
0.087976542,0.205278587,0.293255119,0.518084049
0.087976542,0.195503416,0.283479958,0.508308887
0.087976542,0.185728254,0.293255119,0.53763442
0.087976542,0.175953078,0.3030303,0.557184744
0.087976542,0.175953078,0.322580624,0.576735067
0.087976542,0.166177917,0.322580624,0.547409582
0.087976542,0.166177917,0.312805462,0.527859211
0.087976542,0.156402731,0.312805462,0.518084049
0.078201365,0.156402731,0.322580624,0.547409582
0.078201365,0.166177917,0.332355833,0.6060606
0.087976542,0.166177917,0.322580624,0.625610924
0.078201365,0.175953078,0.322580624,0.615835762
0.078201365,0.175953078,0.312805462,0.596285439
0.078201365,0.185728254,0.322580624,0.586510229
0.078201365,0.185728254,0.312805462,0.547409582
0.078201365,0.185728254,0.322580624,0.527859211
0.078201365,0.185728254,0.322580624,0.508308887
0.078201365,0.185728254,0.322580624,0.518084049
0.078201365,0.185728254,0.322580624,0.518084049
0.078201365,0.175953078,0.312805462,0.508308887
0.078201365,0.175953078,0.3030303,0.508308887
0.078201365,0.175953078,0.3030303,0.518084049
0.078201365,0.185728254,0.312805462,0.508308887
0.078201365,0.175953078,0.3030303,0.518084049
0.078201365,0.175953078,0.3030303,0.488758564
0.078201365,0.175953078,0.293255119,0.478983355
0.078201365,0.175953078,0.293255119,0.478983355
0.087976542,0.175953078,0.293255119,0.459433031
0.087976542,0.185728254,0.283479958,0.469208193
0.078201365,0.185728254,0.273704791,0.498533726
0.087976542,0.195503416,0.273704791,0.498533726
0.097751703,0.185728254,0.283479958,0.518084049
0.087976542,0.175953078,0.273704791,0.518084049
0.078201365,0.175953078,0.263929605,0.498533726
0.078201365,0.175953078,0.273704791,0.478983355
0.078201365,0.175953078,0.273704791,0.469208193
0.078201365,0.175953078,0.263929605,0.527859211
0.078201365,0.166177917,0.263929605,0.547409582
0.078201365,0.175953078,0.263929605,0.576735067
0.078201365,0.166177917,0.254154444,0.566959906
0.078201365,0.175953078,0.263929605,0.547409582
0.078201365,0.185728254,0.273704791,0.547409582
0.078201365,0.195503416,0.3030303,0.547409582
0.087976542,0.205278587,0.293255119,0.527859211
0.078201365,0.205278587,0.293255119,0.518084049
0.078201365,0.215053773,0.3030303,0.498533726
0.087976542,0.205278587,0.312805462,0.498533726
0.087976542,0.205278587,0.322580624,0.498533726
0.087976542,0.215053773,0.342130995,0.488758564
0.087976542,0.215053773,0.332355833,0.488758564
0.087976542,0.215053773,0.371456504,0.498533726
0.097751703,0.224828935,0.371456504,0.518084049
0.097751703,0.215053773,0.371456504,0.518084049
0.107526886,0.205278587,0.391006832,0.53763442
0.117302048,0.205278587,0.38123167,0.53763442
0.117302048,0.205278587,0.371456504,0.53763442
0.117302048,0.215053773,0.351906157,0.53763442
0.107526886,0.215053773,0.351906157,0.518084049
0.107526886,0.215053773,0.371456504,0.498533726
0.117302048,0.205278587,0.38123167,0.478983355
0.117302048,0.195503416,0.391006832,0.478983355
0.117302048,0.195503416,0.400782013,0.498533726
0.117302048,0.195503416,0.400782013,0.498533726
0.117302048,0.205278587,0.400782013,0.498533726
0.117302048,0.195503416,0.430107546,0.488758564
0.107526886,0.185728254,0.449657869,0.469208193
0.117302048,0.175953078,0.459433031,0.459433031
0.117302048,0.166177917,0.449657869,0.449657869
0.127077222,0.175953078,0.439882708,0.430107546
0.136852396,0.166177917,0.459433031,0.439882708
0.127077222,0.175953078,0.449657869,0.449657869
0.117302048,0.175953078,0.449657869,0.449657869
0.117302048,0.166177917,0.430107546,0.439882708
0.136852396,0.156402731,0.420332336,0.439882708
0.127077222,0.156402731,0.410557175,0.430107546
0.127077222,0.156402731,0.391006832,0.430107546
0.117302048,0.156402731,0.38123167,0.420332336
0.136852396,0.156402731,0.420332336,0.420332336
0.136852396,0.156402731,0.430107546,0.410557175
0.136852396,0.14662756,0.439882708,0.400782013
0.127077222,0.156402731,0.430107546,0.400782013
0.127077222,0.14662756,0.410557175,0.391006832
0.136852396,0.156402731,0.400782013,0.391006832
0.14662756,0.156402731,0.38123167,0.38123167
0.156402731,0.156402731,0.361681342,0.391006832
0.156402731,0.156402731,0.342130995,0.391006832
0.14662756,0.156402731,0.322580624,0.38123167
0.14662756,0.166177917,0.312805462,0.371456504
0.14662756,0.175953078,0.3030303,0.391006832
0.14662756,0.175953078,0.293255119,0.410557175
0.156402731,0.166177917,0.283479958,0.420332336
0.156402731,0.175953078,0.263929605,0.430107546
0.156402731,0.185728254,0.263929605,0.430107546
0.14662756,0.185728254,0.254154444,0.459433031
0.136852396,0.185728254,0.254154444,0.488758564
0.14662756,0.185728254,0.244379282,0.488758564
0.14662756,0.175953078,0.244379282,0.488758564
0.156402731,0.166177917,0.234604096,0.498533726
0.156402731,0.166177917,0.215053773,0.488758564
0.156402731,0.166177917,0.224828935,0.488758564
0.156402731,0.166177917,0.224828935,0.488758564
0.156402731,0.156402731,0.224828935,0.478983355
0.175953078,0.166177917,0.224828935,0.449657869
0.175953078,0.166177917,0.215053773,0.449657869
0.175953078,0.166177917,0.205278587,0.449657869
0.175953078,0.156402731,0.205278587,0.459433031
0.175953078,0.156402731,0.205278587,0.439882708
0.175953078,0.14662756,0.195503416,0.420332336
0.185728254,0.14662756,0.195503416,0.420332336
0.185728254,0.14662756,0.185728254,0.410557175
0.195503416,0.14662756,0.175953078,0.391006832
0.215053773,0.136852396,0.175953078,0.371456504
0.224828935,0.127077222,0.175953078,0.351906157
0.224828935,0.127077222,0.185728254,0.342130995
0.224828935,0.127077222,0.195503416,0.38123167
0.224828935,0.127077222,0.195503416,0.38123167
0.224828935,0.117302048,0.195503416,0.391006832
0.224828935,0.107526886,0.195503416,0.38123167
0.234604096,0.107526886,0.195503416,0.361681342
0.234604096,0.107526886,0.205278587,0.351906157
0.224828935,0.097751703,0.195503416,0.332355833
0.224828935,0.097751703,0.185728254,0.332355833
0.224828935,0.097751703,0.195503416,0.332355833
0.234604096,0.087976542,0.195503416,0.342130995
0.244379282,0.087976542,0.185728254,0.322580624
0.234604096,0.087976542,0.185728254,0.332355833
0.234604096,0.087976542,0.175953078,0.332355833
0.224828935,0.087976542,0.175953078,0.332355833
0.224828935,0.087976542,0.175953078,0.312805462
0.234604096,0.087976542,0.175953078,0.312805462
0.224828935,0.087976542,0.195503416,0.312805462
0.224828935,0.087976542,0.185728254,0.312805462
0.215053773,0.087976542,0.185728254,0.312805462
0.215053773,0.087976542,0.175953078,0.312805462
0.215053773,0.078201365,0.195503416,0.312805462
0.224828935,0.078201365,0.205278587,0.3030303
0.224828935,0.078201365,0.215053773,0.3030303
0.234604096,0.087976542,0.215053773,0.283479958
0.263929605,0.078201365,0.215053773,0.273704791
0.254154444,0.078201365,0.215053773,0.293255119
0.244379282,0.078201365,0.224828935,0.293255119
0.283479958,0.087976542,0.215053773,0.312805462
0.312805462,0.078201365,0.215053773,0.3030303
0.312805462,0.078201365,0.224828935,0.3030303
0.322580624,0.078201365,0.215053773,0.3030303
0.332355833,0.078201365,0.224828935,0.293255119
0.312805462,0.078201365,0.224828935,0.293255119
0.3030303,0.078201365,0.215053773,0.3030303
0.3030303,0.078201365,0.205278587,0.293255119
0.312805462,0.078201365,0.195503416,0.283479958
0.322580624,0.068426199,0.195503416,0.273704791
0.312805462,0.078201365,0.195503416,0.263929605
0.312805462,0.068426199,0.195503416,0.254154444
0.3030303,0.078201365,0.195503416,0.244379282
0.3030303,0.078201365,0.195503416,0.234604096
0.361681342,0.068426199,0.205278587,0.224828935
0.38123167,0.068426199,0.205278587,0.234604096
0.391006832,0.068426199,0.195503416,0.234604096
0.391006832,0.068426199,0.195503416,0.234604096
0.38123167,0.068426199,0.195503416,0.254154444
0.400782013,0.078201365,0.195503416,0.254154444
0.410557175,0.078201365,0.185728254,0.254154444
0.439882708,0.068426199,0.185728254,0.254154444
0.469208193,0.068426199,0.185728254,0.254154444
0.459433031,0.068426199,0.185728254,0.254154444
0.449657869,0.068426199,0.195503416,0.244379282
0.439882708,0.068426199,0.185728254,0.244379282
0.439882708,0.068426199,0.185728254,0.244379282
0.439882708,0.058651023,0.175953078,0.254154444
0.430107546,0.058651023,0.175953078,0.254154444
0.439882708,0.058651023,0.175953078,0.263929605
0.459433031,0.058651023,0.175953078,0.254154444
0.459433031,0.058651023,0.185728254,0.234604096
0.439882708,0.058651023,0.185728254,0.244379282
0.449657869,0.058651023,0.195503416,0.254154444
0.478983355,0.058651023,0.195503416,0.244379282
0.488758564,0.058651023,0.205278587,0.273704791
0.488758564,0.058651023,0.205278587,0.263929605
0.478983355,0.058651023,0.205278587,0.263929605
0.488758564,0.058651023,0.195503416,0.263929605
0.488758564,0.058651023,0.195503416,0.254154444
0.488758564,0.058651023,0.195503416,0.263929605
0.498533726,0.068426199,0.185728254,0.263929605
0.547409582,0.058651023,0.185728254,0.254154444
0.566959906,0.068426199,0.185728254,0.254154444
0.6060606,0.068426199,0.185728254,0.263929605
0.6060606,0.058651023,0.175953078,0.254154444
0.586510229,0.068426199,0.175953078,0.244379282
0.576735067,0.058651023,0.166177917,0.244379282
0.6060606,0.068426199,0.185728254,0.244379282
0.615835762,0.068426199,0.205278587,0.234604096
0.645161247,0.068426199,0.205278587,0.224828935
0.654936409,0.068426199,0.215053773,0.234604096
0.645161247,0.068426199,0.215053773,0.254154444
0.635386086,0.068426199,0.215053773,0.244379282
0.635386086,0.068426199,0.215053773,0.234604096
0.654936409,0.068426199,0.205278587,0.224828935
0.68426199,0.078201365,0.195503416,0.224828935
0.694037151,0.078201365,0.205278587,0.224828935
0.752688169,0.078201365,0.205278587,0.224828935
0.811339188,0.078201365,0.205278587,0.205278587
0.85043993,0.068426199,0.195503416,0.205278587
0.869990253,0.068426199,0.195503416,0.205278587
0.860215092,0.068426199,0.205278587,0.205278587
0.879765415,0.068426199,0.205278587,0.205278587
0.899315739,0.068426199,0.205278587,0.195503416
0.889540577,0.068426199,0.195503416,0.195503416
0.899315739,0.078201365,0.215053773,0.185728254
0.879765415,0.068426199,0.215053773,0.175953078
0.869990253,0.068426199,0.215053773,0.166177917
0.85043993,0.068426199,0.205278587,0.166177917
0.811339188,0.078201365,0.215053773,0.156402731
0.782013655,0.078201365,0.205278587,0.166177917
0.782013655,0.078201365,0.205278587,0.156402731
0.801564026,0.078201365,0.205278587,0.166177917
0.811339188,0.078201365,0.195503416,0.205278587
0.811339188,0.078201365,0.195503416,0.215053773
0.801564026,0.078201365,0.205278587,0.234604096
0.801564026,0.087976542,0.195503416,0.244379282
0.782013655,0.087976542,0.185728254,0.263929605
0.772238493,0.087976542,0.195503416,0.263929605
0.733137846,0.078201365,0.185728254,0.254154444
0.713587475,0.097751703,0.185728254,0.234604096
0.694037151,0.107526886,0.175953078,0.244379282
0.674486828,0.107526886,0.175953078,0.254154444
0.68426199,0.117302048,0.185728254,0.254154444
0.674486828,0.107526886,0.185728254,0.254154444
0.664711666,0.107526886,0.195503416,0.263929605
0.645161247,0.107526886,0.195503416,0.254154444
0.635386086,0.117302048,0.195503416,0.244379282
0.625610924,0.127077222,0.185728254,0.244379282
0.625610924,0.127077222,0.175953078,0.244379282
0.6060606,0.127077222,0.166177917,0.234604096
0.625610924,0.156402731,0.166177917,0.234604096
0.654936409,0.166177917,0.166177917,0.234604096
0.703812313,0.166177917,0.156402731,0.224828935
0.723362684,0.175953078,0.156402731,0.215053773
0.723362684,0.175953078,0.14662756,0.215053773
0.703812313,0.175953078,0.14662756,0.224828935
0.742913008,0.175953078,0.14662756,0.224828935
0.782013655,0.185728254,0.14662756,0.234604096
0.811339188,0.175953078,0.136852396,0.244379282
0.85043993,0.175953078,0.136852396,0.244379282
0.840664673,0.166177917,0.136852396,0.244379282
0.830889511,0.156402731,0.14662756,0.234604096
0.830889511,0.175953078,0.14662756,0.234604096
0.811339188,0.175953078,0.136852396,0.234604096
0.791788864,0.175953078,0.136852396,0.224828935
0.791788864,0.175953078,0.136852396,0.215053773
0.791788864,0.166177917,0.136852396,0.215053773
0.821114349,0.166177917,0.136852396,0.224828935
0.840664673,0.166177917,0.136852396,0.234604096
0.869990253,0.166177917,0.127077222,0.234604096
0.840664673,0.175953078,0.127077222,0.234604096
0.85043993,0.175953078,0.136852396,0.254154444
0.899315739,0.195503416,0.136852396,0.263929605
0.918866062,0.195503416,0.136852396,0.273704791
0.928641224,0.195503416,0.136852396,0.283479958
0.899315739,0.195503416,0.127077222,0.273704791
0.879765415,0.185728254,0.136852396,0.254154444
0.879765415,0.195503416,0.136852396,0.244379282
0.918866062,0.185728254,0.136852396,0.244379282
0.967741871,0.185728254,0.136852396,0.234604096
0.957966709,0.185728254,0.127077222,0.215053773
0.918866062,0.175953078,0.127077222,0.215053773
0.938416386,0.175953078,0.127077222,0.215053773
0.928641224,0.166177917,0.127077222,0.215053773
0.9090909,0.166177917,0.127077222,0.224828935
0.869990253,0.166177917,0.117302048,0.254154444
0.899315739,0.156402731,0.117302048,0.234604096
0.918866062,0.156402731,0.117302048,0.234604096
0.967741871,0.156402731,0.117302048,0.234604096
0.918866062,0.156402731,0.117302048,0.244379282
0.9090909,0.166177917,0.117302048,0.224828935
0.938416386,0.185728254,0.127077222,0.234604096
0.938416386,0.205278587,0.136852396,0.244379282
0.967741871,0.215053773,0.127077222,0.244379282
0.948191547,0.224828935,0.127077222,0.263929605
0.967741871,0.234604096,0.127077222,0.263929605
0.967741871,0.224828935,0.127077222,0.273704791
0.977517128,0.224828935,0.117302048,0.273704791
0.997067451,0.224828935,0.127077222,0.273704791
1.04594326,0.234604096,0.117302048,0.263929605
1.143694997,0.234604096,0.117302048,0.263929605
1.192570925,0.234604096,0.107526886,0.254154444
1.153470159,0.234604096,0.107526886,0.273704791
1.124144673,0.244379282,0.097751703,0.283479958
1.114369512,0.244379282,0.097751703,0.263929605
1.065493703,0.234604096,0.097751703,0.254154444
1.026392937,0.234604096,0.097751703,0.254154444
0.997067451,0.224828935,0.097751703,0.254154444
1.016617775,0.215053773,0.097751703,0.244379282
0.98729229,0.215053773,0.097751703,0.244379282
0.938416386,0.215053773,0.097751703,0.244379282
0.918866062,0.215053773,0.097751703,0.234604096
0.9090909,0.224828935,0.097751703,0.234604096
0.9090909,0.273704791,0.097751703,0.234604096
0.918866062,0.273704791,0.097751703,0.254154444
0.957966709,0.3030303,0.107526886,0.254154444
0.967741871,0.312805462,0.107526886,0.263929605
0.967741871,0.312805462,0.117302048,0.263929605
0.918866062,0.312805462,0.117302048,0.263929605
0.899315739,0.332355833,0.117302048,0.254154444
0.879765415,0.332355833,0.117302048,0.234604096
0.889540577,0.322580624,0.117302048,0.224828935
0.899315739,0.312805462,0.127077222,0.224828935
0.879765415,0.3030303,0.127077222,0.224828935
0.918866062,0.342130995,0.117302048,0.215053773
0.928641224,0.351906157,0.117302048,0.205278587
0.928641224,0.361681342,0.117302048,0.205278587
0.9090909,0.351906157,0.117302048,0.195503416
0.879765415,0.361681342,0.117302048,0.215053773
0.85043993,0.371456504,0.117302048,0.224828935
0.860215092,0.391006832,0.127077222,0.244379282
0.869990253,0.38123167,0.136852396,0.244379282
0.840664673,0.38123167,0.136852396,0.254154444
0.830889511,0.391006832,0.136852396,0.254154444
0.821114349,0.391006832,0.14662756,0.244379282
0.811339188,0.391006832,0.136852396,0.234604096
0.791788864,0.400782013,0.136852396,0.224828935
0.762463331,0.400782013,0.136852396,0.224828935
0.742913008,0.391006832,0.127077222,0.215053773
0.713587475,0.38123167,0.117302048,0.205278587
0.68426199,0.38123167,0.127077222,0.195503416
0.674486828,0.371456504,0.127077222,0.195503416
0.654936409,0.361681342,0.127077222,0.195503416
0.645161247,0.342130995,0.127077222,0.185728254
0.625610924,0.351906157,0.136852396,0.185728254
0.596285439,0.332355833,0.14662756,0.175953078
0.576735067,0.342130995,0.136852396,0.185728254
0.566959906,0.342130995,0.136852396,0.185728254
0.53763442,0.361681342,0.136852396,0.195503416
0.518084049,0.391006832,0.136852396,0.205278587
0.518084049,0.420332336,0.136852396,0.205278587
0.527859211,0.420332336,0.136852396,0.205278587
0.518084049,0.410557175,0.136852396,0.195503416
0.518084049,0.410557175,0.127077222,0.205278587
0.518084049,0.410557175,0.127077222,0.205278587
0.508308887,0.420332336,0.127077222,0.195503416
0.508308887,0.430107546,0.127077222,0.185728254
0.527859211,0.430107546,0.127077222,0.185728254
0.53763442,0.420332336,0.127077222,0.175953078
0.518084049,0.459433031,0.136852396,0.166177917
0.508308887,0.478983355,0.136852396,0.156402731
0.518084049,0.547409582,0.136852396,0.156402731
0.53763442,0.53763442,0.136852396,0.166177917
0.576735067,0.566959906,0.136852396,0.166177917
0.576735067,0.576735067,0.136852396,0.175953078
0.566959906,0.566959906,0.127077222,0.175953078
0.547409582,0.566959906,0.127077222,0.166177917
0.53763442,0.557184744,0.127077222,0.166177917
0.527859211,0.557184744,0.127077222,0.156402731
0.566959906,0.566959906,0.136852396,0.166177917
0.547409582,0.576735067,0.14662756,0.156402731
0.547409582,0.566959906,0.14662756,0.156402731
0.547409582,0.576735067,0.14662756,0.14662756
0.557184744,0.586510229,0.156402731,0.14662756
0.53763442,0.635386086,0.156402731,0.136852396
0.547409582,0.654936409,0.14662756,0.136852396
0.53763442,0.703812313,0.14662756,0.127077222
0.53763442,0.713587475,0.136852396,0.127077222
0.547409582,0.752688169,0.136852396,0.117302048
0.547409582,0.762463331,0.136852396,0.117302048
0.527859211,0.762463331,0.136852396,0.107526886
0.518084049,0.742913008,0.136852396,0.107526886
0.518084049,0.723362684,0.127077222,0.107526886
0.518084049,0.723362684,0.14662756,0.107526886
0.518084049,0.733137846,0.14662756,0.107526886
0.488758564,0.762463331,0.14662756,0.107526886
0.478983355,0.762463331,0.156402731,0.097751703
0.459433031,0.821114349,0.156402731,0.117302048
0.439882708,0.840664673,0.156402731,0.117302048
0.410557175,0.9090909,0.166177917,0.117302048
0.410557175,0.938416386,0.166177917,0.107526886
0.420332336,0.9090909,0.166177917,0.107526886
0.420332336,0.918866062,0.166177917,0.117302048
0.410557175,0.889540577,0.166177917,0.107526886
0.430107546,0.9090909,0.185728254,0.107526886
0.430107546,0.879765415,0.185728254,0.107526886
0.420332336,0.840664673,0.195503416,0.097751703
0.410557175,0.85043993,0.185728254,0.107526886
0.400782013,0.869990253,0.185728254,0.097751703
0.400782013,0.889540577,0.185728254,0.097751703
0.400782013,0.918866062,0.205278587,0.097751703
0.420332336,0.948191547,0.205278587,0.097751703
0.430107546,1.006842613,0.195503416,0.107526886
0.459433031,0.98729229,0.205278587,0.107526886
0.488758564,1.016617775,0.195503416,0.107526886
0.488758564,1.006842613,0.195503416,0.117302048
0.488758564,1.006842613,0.215053773,0.107526886
0.498533726,1.094819183,0.215053773,0.107526886
0.53763442,1.114369512,0.215053773,0.117302048
0.547409582,1.114369512,0.215053773,0.136852396
0.53763442,1.094819183,0.224828935,0.127077222
0.518084049,1.065493703,0.234604096,0.127077222
0.508308887,1.055718422,0.234604096,0.136852396
0.508308887,1.036168098,0.234604096,0.156402731
0.498533726,1.006842613,0.244379282,0.156402731
0.488758564,0.977517128,0.244379282,0.166177917
0.469208193,0.957966709,0.244379282,0.175953078
0.469208193,0.957966709,0.234604096,0.185728254
0.488758564,0.967741871,0.234604096,0.185728254
0.478983355,0.957966709,0.234604096,0.195503416
0.478983355,0.948191547,0.234604096,0.185728254
0.469208193,0.928641224,0.224828935,0.185728254
0.459433031,0.899315739,0.263929605,0.185728254
0.459433031,0.879765415,0.283479958,0.195503416
0.459433031,0.899315739,0.273704791,0.195503416
0.449657869,0.860215092,0.273704791,0.195503416
0.449657869,0.840664673,0.273704791,0.195503416
0.449657869,0.830889511,0.263929605,0.195503416
0.488758564,0.869990253,0.254154444,0.185728254
0.508308887,0.938416386,0.244379282,0.185728254
0.557184744,0.948191547,0.263929605,0.195503416
0.586510229,0.948191547,0.273704791,0.185728254
0.6060606,0.918866062,0.273704791,0.175953078
0.645161247,0.938416386,0.273704791,0.166177917
0.674486828,0.938416386,0.293255119,0.166177917
0.703812313,0.918866062,0.293255119,0.166177917
0.772238493,0.879765415,0.3030303,0.166177917
0.811339188,0.840664673,0.293255119,0.156402731
0.879765415,0.85043993,0.283479958,0.156402731
1.036168098,0.830889511,0.3030303,0.14662756
1.212121248,0.830889511,0.3030303,0.14662756
1.417399788,0.821114349,0.342130995,0.14662756
1.59335289,0.801564026,0.371456504,0.14662756
1.603128052,0.782013655,0.391006832,0.14662756
1.730205297,0.752688169,0.400782013,0.14662756
1.867057705,0.733137846,0.410557175,0.14662756
1.89638319,0.703812313,0.400782013,0.156402731
1.915933514,0.68426199,0.391006832,0.156402731
1.867057705,0.664711666,0.38123167,0.156402731
1.827957058,0.654936409,0.400782013,0.156402731
1.818181896,0.625610924,0.410557175,0.14662756
1.769305944,0.625610924,0.410557175,0.14662756
1.788856268,0.615835762,0.400782013,0.14662756
1.876832867,0.615835762,0.391006832,0.136852396
1.925708675,0.625610924,0.410557175,0.136852396
1.955034256,0.635386086,0.410557175,0.127077222
1.974584579,0.615835762,0.391006832,0.127077222
1.964809418,0.625610924,0.391006832,0.117302048
1.984359741,0.635386086,0.391006832,0.117302048
2.003910065,0.635386086,0.439882708,0.117302048
1.955034256,0.615835762,0.430107546,0.117302048
1.876832867,0.596285439,0.430107546,0.117302048
1.808406639,0.576735067,0.449657869,0.107526886
1.730205297,0.566959906,0.449657869,0.117302048
1.642228699,0.557184744,0.459433031,0.107526886
1.564027309,0.547409582,0.449657869,0.107526886
1.524926662,0.527859211,0.430107546,0.107526886
1.466275692,0.508308887,0.459433031,0.107526886
1.397849445,0.527859211,0.488758564,0.107526886
1.33919847,0.527859211,0.518084049,0.107526886
1.319648147,0.527859211,0.547409582,0.117302048
1.300097704,0.518084049,0.53763442,0.117302048
1.270772219,0.508308887,0.547409582,0.127077222
1.270772219,0.508308887,0.576735067,0.127077222
1.251221895,0.488758564,0.557184744,0.127077222
1.212121248,0.478983355,0.566959906,0.117302048
1.212121248,0.459433031,0.576735067,0.117302048
1.173020482,0.439882708,0.6060606,0.117302048
1.143694997,0.430107546,0.635386086,0.127077222
1.143694997,0.420332336,0.645161247,0.127077222
1.094819183,0.410557175,0.625610924,0.136852396
1.065493703,0.400782013,0.615835762,0.136852396
1.04594326,0.410557175,0.615835762,0.136852396
0.997067451,0.400782013,0.6060606,0.14662756
0.997067451,0.391006832,0.586510229,0.156402731
0.977517128,0.38123167,0.596285439,0.14662756
0.948191547,0.361681342,0.6060606,0.156402731
0.918866062,0.351906157,0.586510229,0.175953078
0.938416386,0.342130995,0.635386086,0.175953078
0.889540577,0.332355833,0.635386086,0.175953078
0.869990253,0.361681342,0.68426199,0.166177917
0.830889511,0.351906157,0.68426199,0.166177917
0.840664673,0.342130995,0.664711666,0.156402731
0.821114349,0.332355833,0.723362684,0.166177917
0.772238493,0.332355833,0.830889511,0.175953078
0.742913008,0.322580624,0.860215092,0.166177917
0.762463331,0.312805462,0.889540577,0.166177917
0.723362684,0.3030303,0.869990253,0.175953078
0.703812313,0.293255119,0.830889511,0.175953078
0.694037151,0.293255119,0.830889511,0.175953078
0.68426199,0.283479958,0.801564026,0.175953078
0.664711666,0.273704791,0.811339188,0.185728254
0.625610924,0.273704791,0.85043993,0.185728254
0.625610924,0.273704791,0.899315739,0.185728254
0.6060606,0.263929605,0.967741871,0.185728254
0.586510229,0.254154444,0.98729229,0.175953078
0.576735067,0.244379282,1.055718422,0.175953078
0.547409582,0.234604096,1.04594326,0.195503416
0.53763442,0.224828935,0.997067451,0.195503416
0.53763442,0.215053773,0.98729229,0.185728254
0.527859211,0.224828935,1.006842613,0.185728254
0.547409582,0.234604096,1.006842613,0.185728254
0.557184744,0.244379282,1.016617775,0.185728254
0.586510229,0.254154444,0.997067451,0.175953078
0.586510229,0.263929605,1.026392937,0.175953078
0.596285439,0.254154444,1.006842613,0.195503416
0.6060606,0.263929605,1.016617775,0.205278587
0.615835762,0.244379282,1.006842613,0.244379282
0.635386086,0.254154444,1.04594326,0.244379282
0.635386086,0.244379282,1.036168098,0.234604096
0.625610924,0.244379282,1.036168098,0.234604096
0.596285439,0.234604096,1.055718422,0.224828935
0.586510229,0.234604096,1.065493703,0.224828935
0.566959906,0.273704791,1.055718422,0.215053773
0.53763442,0.312805462,1.10459435,0.215053773
0.527859211,0.312805462,1.114369512,0.215053773
0.498533726,0.3030303,1.075268865,0.215053773
0.478983355,0.3030303,1.085044022,0.205278587
0.498533726,0.3030303,1.085044022,0.205278587
0.488758564,0.312805462,1.065493703,0.205278587
0.469208193,0.312805462,1.016617775,0.205278587
0.478983355,0.293255119,0.967741871,0.205278587
0.488758564,0.283479958,0.948191547,0.205278587
0.488758564,0.273704791,0.928641224,0.215053773
0.478983355,0.273704791,0.899315739,0.224828935
0.459433031,0.273704791,0.869990253,0.244379282
0.439882708,0.273704791,0.840664673,0.234604096
0.439882708,0.273704791,0.840664673,0.263929605
0.430107546,0.293255119,0.821114349,0.273704791
0.420332336,0.293255119,0.772238493,0.293255119
0.410557175,0.293255119,0.742913008,0.283479958
0.400782013,0.293255119,0.723362684,0.312805462
0.38123167,0.312805462,0.713587475,0.332355833
0.38123167,0.293255119,0.713587475,0.351906157
0.361681342,0.283479958,0.733137846,0.371456504
0.361681342,0.273704791,0.733137846,0.371456504
0.342130995,0.273704791,0.703812313,0.430107546
0.332355833,0.263929605,0.68426199,0.420332336
0.322580624,0.283479958,0.654936409,0.420332336
0.322580624,0.3030303,0.645161247,0.410557175
0.312805462,0.3030303,0.625610924,0.420332336
0.293255119,0.312805462,0.635386086,0.430107546
0.293255119,0.312805462,0.635386086,0.430107546
0.312805462,0.351906157,0.615835762,0.449657869
0.322580624,0.38123167,0.615835762,0.430107546
0.332355833,0.38123167,0.645161247,0.430107546
0.351906157,0.391006832,0.645161247,0.459433031
0.342130995,0.38123167,0.674486828,0.459433031
0.342130995,0.371456504,0.713587475,0.478983355
0.332355833,0.361681342,0.752688169,0.459433031
0.332355833,0.38123167,0.733137846,0.449657869
0.322580624,0.371456504,0.723362684,0.439882708
0.322580624,0.361681342,0.752688169,0.420332336
0.322580624,0.371456504,0.791788864,0.410557175
0.332355833,0.371456504,0.811339188,0.410557175
0.342130995,0.38123167,0.811339188,0.410557175
0.322580624,0.371456504,0.830889511,0.410557175
0.312805462,0.361681342,0.821114349,0.420332336
0.3030303,0.351906157,0.918866062,0.439882708
0.312805462,0.351906157,0.997067451,0.488758564
0.312805462,0.342130995,1.036168098,0.518084049
0.312805462,0.332355833,1.026392937,0.557184744
0.312805462,0.332355833,0.997067451,0.557184744
0.312805462,0.342130995,1.006842613,0.576735067
0.3030303,0.332355833,1.006842613,0.557184744
0.3030303,0.322580624,1.036168098,0.53763442
0.3030303,0.342130995,1.094819183,0.527859211
0.293255119,0.332355833,1.075268865,0.518084049
0.273704791,0.342130995,1.04594326,0.557184744
0.293255119,0.342130995,1.006842613,0.557184744
0.293255119,0.351906157,0.997067451,0.557184744
0.283479958,0.351906157,1.006842613,0.53763442
0.283479958,0.351906157,0.997067451,0.518084049
0.3030303,0.342130995,0.957966709,0.498533726
0.312805462,0.371456504,0.918866062,0.498533726
0.312805462,0.38123167,0.879765415,0.518084049
0.3030303,0.400782013,0.860215092,0.488758564
0.312805462,0.400782013,0.869990253,0.508308887
0.322580624,0.391006832,0.899315739,0.518084049
0.342130995,0.400782013,0.869990253,0.488758564
0.351906157,0.400782013,0.840664673,0.498533726
0.38123167,0.400782013,0.860215092,0.53763442
0.38123167,0.391006832,0.840664673,0.527859211
0.371456504,0.38123167,0.801564026,0.508308887
0.351906157,0.371456504,0.772238493,0.566959906
0.342130995,0.371456504,0.752688169,0.566959906
0.342130995,0.400782013,0.772238493,0.615835762
0.332355833,0.400782013,0.762463331,0.615835762
0.342130995,0.410557175,0.713587475,0.6060606
0.322580624,0.420332336,0.694037151,0.615835762
0.342130995,0.439882708,0.68426199,0.6060606
0.351906157,0.430107546,0.664711666,0.596285439
0.361681342,0.430107546,0.635386086,0.635386086
0.38123167,0.430107546,0.596285439,0.615835762
0.38123167,0.410557175,0.576735067,0.654936409
0.38123167,0.391006832,0.576735067,0.615835762
0.38123167,0.400782013,0.566959906,0.6060606
0.371456504,0.430107546,0.53763442,0.645161247
0.38123167,0.439882708,0.508308887,0.664711666
0.38123167,0.449657869,0.488758564,0.703812313
0.361681342,0.430107546,0.459433031,0.723362684
0.351906157,0.420332336,0.439882708,0.752688169
0.351906157,0.410557175,0.420332336,0.811339188
0.351906157,0.400782013,0.400782013,0.830889511
0.342130995,0.400782013,0.391006832,0.821114349
0.332355833,0.391006832,0.371456504,0.821114349
0.332355833,0.410557175,0.351906157,0.821114349
0.322580624,0.439882708,0.332355833,0.830889511
0.332355833,0.459433031,0.322580624,0.782013655
0.322580624,0.469208193,0.312805462,0.772238493
0.351906157,0.449657869,0.3030303,0.752688169
0.371456504,0.439882708,0.293255119,0.762463331
0.351906157,0.439882708,0.273704791,0.811339188
0.430107546,0.449657869,0.263929605,0.85043993
0.53763442,0.449657869,0.254154444,0.869990253
0.596285439,0.449657869,0.254154444,0.85043993
0.635386086,0.439882708,0.244379282,0.879765415
0.635386086,0.420332336,0.244379282,0.977517128
0.664711666,0.400782013,0.244379282,1.055718422
0.635386086,0.410557175,0.244379282,1.065493703
0.6060606,0.391006832,0.254154444,1.075268865
0.615835762,0.38123167,0.273704791,1.055718422
0.654936409,0.38123167,0.273704791,1.04594326
0.654936409,0.391006832,0.283479958,1.006842613
0.654936409,0.400782013,0.293255119,0.98729229
0.654936409,0.391006832,0.293255119,1.055718422
0.645161247,0.400782013,0.283479958,1.055718422
0.625610924,0.400782013,0.3030303,1.065493703
0.615835762,0.400782013,0.322580624,1.036168098
0.6060606,0.420332336,0.322580624,1.026392937
0.586510229,0.410557175,0.342130995,1.026392937
0.557184744,0.400782013,0.342130995,1.036168098
0.547409582,0.391006832,0.371456504,1.036168098
0.615835762,0.38123167,0.400782013,0.997067451
0.703812313,0.38123167,0.391006832,0.977517128
0.762463331,0.371456504,0.391006832,1.055718422
0.801564026,0.371456504,0.391006832,1.124144673
0.840664673,0.351906157,0.391006832,1.173020482
0.869990253,0.342130995,0.410557175,1.124144673
0.860215092,0.332355833,0.391006832,1.124144673
0.85043993,0.342130995,0.38123167,1.124144673
0.85043993,0.342130995,0.371456504,1.114369512
0.821114349,0.361681342,0.351906157,1.094819183
0.821114349,0.351906157,0.342130995,1.114369512
0.811339188,0.351906157,0.342130995,1.133919835
0.772238493,0.371456504,0.342130995,1.143694997
0.772238493,0.361681342,0.322580624,1.192570925
0.772238493,0.342130995,0.332355833,1.182795639
0.762463331,0.342130995,0.342130995,1.212121248
0.723362684,0.332355833,0.361681342,1.173020482
0.703812313,0.342130995,0.371456504,1.16324532
0.68426199,0.332355833,0.38123167,1.133919835
0.645161247,0.312805462,0.38123167,1.202346087
0.625610924,0.3030303,0.38123167,1.241446733
0.586510229,0.312805462,0.371456504,1.290322542
0.6060606,0.322580624,0.371456504,1.309872866
0.596285439,0.332355833,0.400782013,1.260997057
0.615835762,0.322580624,0.400782013,1.241446733
0.596285439,0.312805462,0.391006832,1.300097704
0.596285439,0.312805462,0.391006832,1.300097704
0.576735067,0.312805462,0.38123167,1.358748794
0.566959906,0.3030303,0.38123167,1.348973632
0.547409582,0.312805462,0.38123167,1.300097704
0.53763442,0.312805462,0.38123167,1.270772219
0.527859211,0.3030303,0.371456504,1.241446733
0.527859211,0.293255119,0.351906157,1.202346087
0.508308887,0.283479958,0.351906157,1.173020482
0.508308887,0.283479958,0.371456504,1.182795639
0.498533726,0.273704791,0.400782013,1.192570925
0.478983355,0.273704791,0.400782013,1.202346087
0.478983355,0.263929605,0.400782013,1.182795639
0.478983355,0.273704791,0.400782013,1.16324532
0.469208193,0.283479958,0.400782013,1.124144673
0.449657869,0.283479958,0.410557175,1.153470159
0.439882708,0.283479958,0.400782013,1.202346087
0.439882708,0.273704791,0.391006832,1.182795639
0.430107546,0.273704791,0.410557175,1.143694997
0.410557175,0.273704791,0.430107546,1.114369512
0.391006832,0.254154444,0.439882708,1.075268865
0.371456504,0.244379282,0.430107546,1.055718422
0.361681342,0.244379282,0.430107546,1.006842613
0.351906157,0.234604096,0.410557175,0.977517128
0.361681342,0.224828935,0.400782013,0.948191547
0.351906157,0.215053773,0.400782013,0.928641224
0.332355833,0.215053773,0.400782013,0.879765415
0.312805462,0.205278587,0.400782013,0.869990253
0.3030303,0.205278587,0.410557175,0.85043993
0.283479958,0.195503416,0.430107546,0.821114349
0.283479958,0.205278587,0.420332336,0.782013655
0.273704791,0.215053773,0.410557175,0.772238493
0.273704791,0.205278587,0.420332336,0.752688169
0.283479958,0.205278587,0.430107546,0.742913008
0.293255119,0.195503416,0.430107546,0.723362684
0.283479958,0.205278587,0.430107546,0.68426199
0.283479958,0.234604096,0.439882708,0.664711666
0.312805462,0.234604096,0.420332336,0.654936409
0.312805462,0.234604096,0.439882708,0.635386086
0.312805462,0.224828935,0.430107546,0.615835762
0.3030303,0.215053773,0.410557175,0.625610924
0.3030303,0.205278587,0.400782013,0.635386086
0.293255119,0.205278587,0.410557175,0.625610924
0.3030303,0.205278587,0.391006832,0.635386086
0.3030303,0.215053773,0.391006832,0.742913008
0.293255119,0.234604096,0.371456504,0.85043993
0.283479958,0.244379282,0.371456504,0.928641224
0.273704791,0.263929605,0.361681342,0.948191547
0.273704791,0.263929605,0.361681342,0.997067451
0.263929605,0.263929605,0.351906157,1.026392937
0.263929605,0.254154444,0.371456504,0.997067451
0.254154444,0.263929605,0.400782013,0.977517128
0.254154444,0.273704791,0.410557175,0.957966709
0.244379282,0.293255119,0.410557175,0.938416386
0.234604096,0.293255119,0.400782013,0.899315739
0.234604096,0.283479958,0.391006832,0.85043993
0.234604096,0.283479958,0.38123167,0.830889511
0.224828935,0.312805462,0.391006832,0.791788864
0.224828935,0.312805462,0.38123167,0.752688169
0.215053773,0.322580624,0.38123167,0.723362684
0.205278587,0.312805462,0.391006832,0.694037151
0.205278587,0.312805462,0.38123167,0.654936409
0.215053773,0.3030303,0.371456504,0.645161247
0.234604096,0.3030303,0.38123167,0.625610924
0.244379282,0.293255119,0.391006832,0.6060606
0.244379282,0.283479958,0.400782013,0.615835762
0.244379282,0.283479958,0.391006832,0.625610924
0.234604096,0.293255119,0.38123167,0.625610924
0.234604096,0.293255119,0.361681342,0.596285439
0.224828935,0.293255119,0.351906157,0.576735067
0.215053773,0.273704791,0.342130995,0.557184744
0.215053773,0.273704791,0.332355833,0.547409582
0.215053773,0.263929605,0.332355833,0.527859211
0.234604096,0.263929605,0.332355833,0.518084049
0.224828935,0.263929605,0.351906157,0.518084049
0.234604096,0.254154444,0.38123167,0.498533726
0.224828935,0.254154444,0.38123167,0.508308887
0.215053773,0.244379282,0.38123167,0.498533726
0.215053773,0.244379282,0.371456504,0.498533726
0.215053773,0.234604096,0.371456504,0.498533726
0.215053773,0.234604096,0.361681342,0.478983355
0.215053773,0.244379282,0.371456504,0.459433031
0.224828935,0.234604096,0.391006832,0.449657869
0.224828935,0.234604096,0.410557175,0.430107546
0.254154444,0.234604096,0.410557175,0.430107546
0.254154444,0.234604096,0.410557175,0.430107546
0.254154444,0.234604096,0.391006832,0.410557175
0.244379282,0.215053773,0.38123167,0.400782013
0.244379282,0.215053773,0.371456504,0.391006832
0.234604096,0.205278587,0.391006832,0.391006832
0.234604096,0.215053773,0.410557175,0.400782013
0.224828935,0.215053773,0.391006832,0.410557175
0.215053773,0.215053773,0.391006832,0.400782013
0.215053773,0.224828935,0.38123167,0.391006832
0.254154444,0.244379282,0.391006832,0.391006832
0.254154444,0.244379282,0.361681342,0.38123167
0.273704791,0.244379282,0.351906157,0.371456504
0.273704791,0.244379282,0.332355833,0.361681342
0.273704791,0.254154444,0.322580624,0.371456504
0.273704791,0.263929605,0.342130995,0.361681342
0.273704791,0.244379282,0.351906157,0.361681342
0.263929605,0.234604096,0.361681342,0.371456504
0.254154444,0.234604096,0.342130995,0.361681342
0.254154444,0.244379282,0.342130995,0.371456504
0.244379282,0.254154444,0.342130995,0.38123167
0.254154444,0.244379282,0.322580624,0.391006832
0.244379282,0.254154444,0.312805462,0.400782013
0.244379282,0.244379282,0.293255119,0.439882708
0.244379282,0.234604096,0.293255119,0.469208193
0.244379282,0.234604096,0.283479958,0.518084049
0.244379282,0.215053773,0.283479958,0.527859211
0.244379282,0.215053773,0.283479958,0.527859211
0.234604096,0.195503416,0.283479958,0.518084049
0.234604096,0.185728254,0.293255119,0.508308887
0.234604096,0.185728254,0.273704791,0.518084049
0.224828935,0.175953078,0.273704791,0.498533726
0.224828935,0.175953078,0.273704791,0.478983355
0.224828935,0.175953078,0.283479958,0.478983355
0.215053773,0.156402731,0.312805462,0.518084049
0.205278587,0.156402731,0.332355833,0.527859211
0.195503416,0.156402731,0.332355833,0.547409582
0.195503416,0.14662756,0.332355833,0.615835762
0.195503416,0.14662756,0.312805462,0.68426199
0.205278587,0.156402731,0.3030303,0.733137846
0.195503416,0.14662756,0.3030303,0.713587475
0.205278587,0.166177917,0.293255119,0.713587475
0.195503416,0.175953078,0.283479958,0.782013655
0.195503416,0.166177917,0.263929605,0.869990253
0.195503416,0.156402731,0.273704791,0.997067451
0.185728254,0.156402731,0.273704791,1.016617775
0.185728254,0.166177917,0.283479958,1.026392937
0.175953078,0.166177917,0.283479958,0.98729229
0.166177917,0.156402731,0.283479958,0.977517128
0.175953078,0.166177917,0.3030303,0.938416386
0.166177917,0.175953078,0.322580624,0.9090909
0.166177917,0.175953078,0.312805462,0.889540577
0.156402731,0.175953078,0.3030303,0.899315739
0.156402731,0.185728254,0.312805462,0.928641224
0.14662756,0.175953078,0.3030303,1.026392937
0.14662756,0.175953078,0.3030303,1.10459435
0.136852396,0.185728254,0.3030303,1.173020482
0.136852396,0.215053773,0.3030303,1.212121248
0.136852396,0.215053773,0.3030303,1.16324532
0.136852396,0.215053773,0.312805462,1.124144673
0.136852396,0.215053773,0.3030303,1.094819183
0.136852396,0.205278587,0.283479958,1.114369512
0.136852396,0.195503416,0.273704791,1.114369512
0.136852396,0.195503416,0.273704791,1.202346087
0.136852396,0.185728254,0.283479958,1.192570925
0.127077222,0.185728254,0.273704791,1.192570925
0.127077222,0.175953078,0.263929605,1.173020482
0.127077222,0.166177917,0.254154444,1.124144673
0.127077222,0.166177917,0.254154444,1.114369512
0.127077222,0.166177917,0.254154444,1.124144673
0.127077222,0.156402731,0.244379282,1.16324532
0.117302048,0.166177917,0.244379282,1.153470159
0.117302048,0.166177917,0.234604096,1.133919835
0.117302048,0.156402731,0.234604096,1.133919835
0.117302048,0.156402731,0.234604096,1.114369512
0.117302048,0.156402731,0.224828935,1.10459435
0.117302048,0.156402731,0.224828935,1.075268865
0.117302048,0.156402731,0.215053773,1.026392937
0.117302048,0.14662756,0.224828935,0.98729229
0.117302048,0.14662756,0.224828935,1.006842613
0.117302048,0.136852396,0.215053773,1.055718422
0.127077222,0.136852396,0.224828935,1.026392937
0.127077222,0.127077222,0.215053773,1.055718422
0.127077222,0.136852396,0.224828935,1.065493703
0.127077222,0.136852396,0.215053773,1.094819183
0.127077222,0.136852396,0.215053773,1.124144673
0.136852396,0.136852396,0.205278587,1.133919835
0.136852396,0.127077222,0.205278587,1.143694997
0.136852396,0.127077222,0.205278587,1.143694997
0.136852396,0.136852396,0.195503416,1.153470159
0.136852396,0.136852396,0.185728254,1.173020482
0.136852396,0.156402731,0.195503416,1.143694997
0.14662756,0.156402731,0.195503416,1.133919835
0.14662756,0.156402731,0.185728254,1.10459435
0.14662756,0.175953078,0.205278587,1.094819183
0.14662756,0.175953078,0.205278587,1.075268865
0.14662756,0.185728254,0.224828935,1.04594326
0.14662756,0.175953078,0.234604096,1.026392937
0.156402731,0.185728254,0.224828935,1.016617775
0.156402731,0.195503416,0.215053773,1.026392937
0.156402731,0.205278587,0.215053773,1.10459435
0.156402731,0.224828935,0.215053773,1.133919835
0.166177917,0.234604096,0.224828935,1.133919835
0.156402731,0.254154444,0.234604096,1.133919835
0.166177917,0.263929605,0.244379282,1.124144673
0.166177917,0.273704791,0.234604096,1.10459435
0.166177917,0.273704791,0.244379282,1.094819183
0.166177917,0.254154444,0.244379282,1.055718422
0.166177917,0.254154444,0.244379282,1.026392937
0.166177917,0.244379282,0.244379282,0.997067451
0.166177917,0.244379282,0.234604096,0.948191547
0.166177917,0.244379282,0.224828935,0.928641224
0.166177917,0.234604096,0.224828935,0.948191547
0.156402731,0.234604096,0.224828935,0.957966709
0.156402731,0.234604096,0.215053773,0.928641224
0.156402731,0.263929605,0.224828935,0.9090909
0.14662756,0.273704791,0.215053773,0.869990253
0.14662756,0.283479958,0.205278587,0.879765415
0.136852396,0.283479958,0.205278587,0.889540577
0.136852396,0.293255119,0.205278587,0.957966709
0.127077222,0.283479958,0.205278587,0.948191547
0.127077222,0.273704791,0.195503416,0.948191547
0.117302048,0.254154444,0.215053773,0.938416386
0.117302048,0.254154444,0.215053773,0.948191547
0.107526886,0.254154444,0.215053773,0.948191547
0.117302048,0.244379282,0.234604096,0.957966709
0.107526886,0.234604096,0.263929605,0.967741871
0.107526886,0.224828935,0.273704791,1.006842613
0.097751703,0.234604096,0.283479958,1.006842613
0.097751703,0.234604096,0.293255119,0.967741871
0.097751703,0.234604096,0.293255119,0.957966709
0.087976542,0.234604096,0.283479958,0.957966709
0.087976542,0.234604096,0.283479958,0.948191547
0.087976542,0.234604096,0.273704791,0.938416386
0.087976542,0.224828935,0.273704791,0.899315739
0.087976542,0.224828935,0.273704791,0.869990253
0.087976542,0.224828935,0.273704791,0.85043993
0.087976542,0.215053773,0.273704791,0.830889511
0.087976542,0.195503416,0.263929605,0.791788864
0.087976542,0.195503416,0.263929605,0.782013655
0.087976542,0.205278587,0.254154444,0.791788864
0.087976542,0.205278587,0.254154444,0.801564026
0.087976542,0.195503416,0.254154444,0.782013655
0.087976542,0.185728254,0.244379282,0.811339188
0.087976542,0.185728254,0.244379282,0.791788864
0.087976542,0.185728254,0.244379282,0.791788864
0.087976542,0.195503416,0.234604096,0.801564026
0.078201365,0.195503416,0.244379282,0.811339188
0.078201365,0.195503416,0.234604096,0.821114349
0.078201365,0.205278587,0.254154444,0.85043993
0.078201365,0.195503416,0.244379282,0.830889511
0.078201365,0.195503416,0.244379282,0.811339188
0.078201365,0.195503416,0.234604096,0.772238493
0.087976542,0.195503416,0.234604096,0.752688169
0.087976542,0.185728254,0.234604096,0.723362684
0.087976542,0.175953078,0.224828935,0.703812313
0.087976542,0.166177917,0.224828935,0.713587475
0.087976542,0.166177917,0.224828935,0.694037151
0.087976542,0.166177917,0.234604096,0.694037151
0.087976542,0.156402731,0.234604096,0.68426199
0.107526886,0.156402731,0.244379282,0.674486828
0.117302048,0.14662756,0.244379282,0.674486828
0.117302048,0.136852396,0.234604096,0.674486828
0.117302048,0.136852396,0.244379282,0.723362684
0.107526886,0.136852396,0.234604096,0.762463331
0.107526886,0.127077222,0.224828935,0.811339188
0.117302048,0.127077222,0.224828935,0.772238493
0.107526886,0.117302048,0.224828935,0.752688169
0.107526886,0.117302048,0.215053773,0.742913008
0.107526886,0.117302048,0.234604096,0.713587475
0.107526886,0.117302048,0.244379282,0.674486828
0.107526886,0.107526886,0.244379282,0.664711666
0.117302048,0.097751703,0.234604096,0.645161247
0.127077222,0.097751703,0.254154444,0.635386086
0.127077222,0.097751703,0.273704791,0.645161247
0.127077222,0.097751703,0.273704791,0.694037151
0.117302048,0.097751703,0.273704791,0.703812313
0.127077222,0.097751703,0.263929605,0.68426199
0.127077222,0.087976542,0.254154444,0.664711666
0.127077222,0.087976542,0.234604096,0.654936409
0.14662756,0.087976542,0.234604096,0.625610924
0.136852396,0.087976542,0.234604096,0.6060606
0.136852396,0.087976542,0.234604096,0.6060606
0.136852396,0.087976542,0.234604096,0.586510229
0.14662756,0.087976542,0.263929605,0.576735067
0.136852396,0.087976542,0.263929605,0.615835762
0.136852396,0.078201365,0.254154444,0.635386086
0.136852396,0.078201365,0.254154444,0.674486828
0.136852396,0.078201365,0.244379282,0.68426199
0.156402731,0.078201365,0.234604096,0.674486828
0.14662756,0.068426199,0.215053773,0.674486828
0.14662756,0.068426199,0.215053773,0.694037151
