0.0977517032,0.0293255119,0.0097751703,0.0195503416
0.5474095821,1.7888562679,3.0791788101,0.2052785873
0.4398827075,1.4076246261,2.4437928199,0.2834799575
0.3616813421,1.1045943498,1.9452590942,0.3128054618
0.3030303001,0.8602150917,1.5444769859,0.3323558330
0.2443792819,0.6744868278,1.2512218952,0.3128054618
0.2052785873,0.5278592109,1.0459432601,0.2541544437
0.1857282543,0.4203323364,0.8504399299,0.2150537729
0.1564027309,0.3225806236,0.7135874748,0.1759530782
0.1368523955,0.2541544437,0.5767350673,0.1466275596
0.1075268864,0.1955034160,0.4789833545,0.1173020482
0.0879765415,0.1564027309,0.4007820129,0.0977517032
0.0782013654,0.1270772218,0.3421309947,0.0782013654
0.0684261989,0.0977517032,0.3128054618,0.0684261989
0.0586510229,0.0684261989,0.2834799575,0.0586510229
0.0488758516,0.0488758516,0.2443792819,0.0488758516
0.0391006832,0.0391006832,0.2346040964,0.0391006832
0.0293255119,0.0293255119,0.2150537729,0.0293255119
0.0293255119,0.0195503416,0.2052785873,0.0293255119
0.0195503416,0.0195503416,0.2248289346,0.0195503416
0.0195503416,0.0097751703,0.2346040964,0.0195503416
0.0097751703,0.0000000000,0.2150537729,0.0195503416
0.0097751703,0.0097751703,0.2834799575,0.0097751703
0.0097751703,0.0000000000,0.2541544437,0.0097751703
0.0097751703,0.0000000000,0.2248289346,0.0097751703
0.0097751703,0.0000000000,0.2150537729,0.0097751703
0.0097751703,0.0000000000,0.1857282543,0.0000000000
0.0097751703,0.0000000000,0.1661779165,0.0097751703
0.0097751703,0.0000000000,0.1466275596,0.0000000000
0.0097751703,0.0000000000,0.1466275596,0.0000000000
0.0293255119,0.0000000000,0.1564027309,0.0000000000
0.0293255119,0.0000000000,0.1466275596,0.0000000000
0.0488758516,0.0000000000,0.1564027309,0.0000000000
0.0391006832,0.0000000000,0.1466275596,0.0000000000
0.0293255119,0.0000000000,0.1564027309,0.0000000000
0.0293255119,0.0000000000,0.1466275596,0.0000000000
0.0293255119,0.0000000000,0.1759530782,0.0000000000
0.0293255119,0.0000000000,0.1564027309,0.0097751703
0.0195503416,0.0000000000,0.1564027309,0.0000000000
0.0293255119,0.0000000000,0.1466275596,0.0000000000
0.0195503416,0.0000000000,0.1466275596,0.0000000000
0.0195503416,0.0000000000,0.1368523955,0.0000000000
0.0488758516,0.0000000000,0.1466275596,0.0000000000
0.0391006832,0.0000000000,0.1564027309,0.0000000000
0.0391006832,0.0000000000,0.1368523955,0.0097751703
0.0293255119,0.0000000000,0.1466275596,0.0097751703
0.0293255119,0.0000000000,0.1564027309,0.0000000000
0.0195503416,0.0000000000,0.1564027309,0.0000000000
0.0195503416,0.0000000000,0.1759530782,0.0000000000
0.0293255119,0.0000000000,0.1857282543,0.0000000000
0.0195503416,0.0000000000,0.1661779165,0.0000000000
0.0097751703,0.0000000000,0.1661779165,0.0000000000
0.0097751703,0.0000000000,0.1759530782,0.0000000000
0.0097751703,0.0000000000,0.1564027309,0.0000000000
0.0097751703,0.0000000000,0.1564027309,0.0000000000
0.0097751703,0.0000000000,0.1857282543,0.0000000000
0.0097751703,0.0000000000,0.1759530782,0.0000000000
0.0195503416,0.0000000000,0.1759530782,0.0000000000
0.0195503416,0.0000000000,0.1564027309,0.0000000000
0.0097751703,0.0000000000,0.1857282543,0.0000000000
0.0097751703,0.0000000000,0.1955034160,0.0000000000
0.0097751703,0.0000000000,0.1857282543,0.0000000000
0.0097751703,0.0000000000,0.2052785873,0.0000000000
0.0097751703,0.0000000000,0.1857282543,0.0000000000
0.0097751703,0.0000000000,0.2052785873,0.0000000000
0.0097751703,0.0000000000,0.1955034160,0.0000000000
0.0097751703,0.0000000000,0.2150537729,0.0000000000
0.0097751703,0.0000000000,0.2346040964,0.0000000000
0.0097751703,0.0000000000,0.2248289346,0.0097751703
0.0097751703,0.0000000000,0.2248289346,0.0000000000
0.0097751703,0.0000000000,0.2248289346,0.0000000000
0.0097751703,0.0000000000,0.2052785873,0.0000000000
0.0000000000,0.0000000000,0.1955034160,0.0000000000
0.0097751703,0.0000000000,0.2248289346,0.0097751703
0.0097751703,0.0000000000,0.2052785873,0.0097751703
0.0097751703,0.0000000000,0.2443792819,0.0195503416
0.0000000000,0.0000000000,0.2150537729,0.0293255119
0.0097751703,0.0000000000,0.2150537729,0.0195503416
0.0097751703,0.0000000000,0.2150537729,0.0195503416
0.0097751703,0.0000000000,0.2052785873,0.0293255119
0.0097751703,0.0000000000,0.2052785873,0.0391006832
0.0097751703,0.0000000000,0.2150537729,0.0391006832
0.0097751703,0.0000000000,0.2052785873,0.0586510229
0.0097751703,0.0000000000,0.2052785873,0.0586510229
0.0097751703,0.0000000000,0.2052785873,0.0488758516
0.0000000000,0.0000000000,0.1955034160,0.0488758516
0.0000000000,0.0000000000,0.1857282543,0.0586510229
0.0195503416,0.0000000000,0.1661779165,0.0586510229
0.0293255119,0.0000000000,0.1759530782,0.0488758516
0.0195503416,0.0000000000,0.1564027309,0.0488758516
0.0195503416,0.0000000000,0.1661779165,0.0586510229
0.0195503416,0.0000000000,0.1564027309,0.0684261989
0.0195503416,0.0000000000,0.1466275596,0.0782013654
0.0195503416,0.0000000000,0.1368523955,0.0977517032
0.0097751703,0.0000000000,0.1466275596,0.0879765415
0.0097751703,0.0000000000,0.1759530782,0.0879765415
0.0195503416,0.0000000000,0.1466275596,0.0977517032
0.0097751703,0.0000000000,0.1466275596,0.1075268864
0.0097751703,0.0000000000,0.1564027309,0.1075268864
0.0097751703,0.0000000000,0.1466275596,0.1173020482
0.0097751703,0.0000000000,0.1466275596,0.1173020482
0.0097751703,0.0000000000,0.1466275596,0.1368523955
0.0097751703,0.0000000000,0.1466275596,0.1368523955
0.0097751703,0.0000000000,0.1368523955,0.1270772218
0.0097751703,0.0000000000,0.1173020482,0.1270772218
0.0097751703,0.0000000000,0.1075268864,0.1075268864
0.0097751703,0.0000000000,0.1075268864,0.0977517032
0.0097751703,0.0000000000,0.1075268864,0.0977517032
0.0097751703,0.0000000000,0.0977517032,0.0879765415
0.0195503416,0.0000000000,0.1075268864,0.0782013654
0.0195503416,0.0000000000,0.0977517032,0.0684261989
0.0195503416,0.0000000000,0.0977517032,0.0586510229
0.0195503416,0.0000000000,0.0977517032,0.0586510229
0.0097751703,0.0000000000,0.1075268864,0.0684261989
0.0097751703,0.0000000000,0.1270772218,0.0684261989
0.0097751703,0.0000000000,0.1075268864,0.0684261989
0.0097751703,0.0000000000,0.1173020482,0.0586510229
0.0097751703,0.0000000000,0.1173020482,0.0488758516
0.0097751703,0.0000000000,0.1173020482,0.0391006832
0.0097751703,0.0000000000,0.1270772218,0.0293255119
0.0097751703,0.0000000000,0.1173020482,0.0293255119
0.0097751703,0.0000000000,0.1075268864,0.0293255119
0.0195503416,0.0000000000,0.1075268864,0.0195503416
0.0097751703,0.0000000000,0.1075268864,0.0195503416
0.0097751703,0.0000000000,0.1173020482,0.0195503416
0.0097751703,0.0000000000,0.1075268864,0.0195503416
0.0097751703,0.0000000000,0.1075268864,0.0097751703
0.0097751703,0.0000000000,0.1173020482,0.0097751703
0.0097751703,0.0000000000,0.1270772218,0.0097751703
0.0097751703,0.0000000000,0.1270772218,0.0097751703
0.0097751703,0.0000000000,0.1173020482,0.0000000000
0.0097751703,0.0000000000,0.1075268864,0.0000000000
0.0195503416,0.0000000000,0.1075268864,0.0000000000
0.0195503416,0.0000000000,0.1075268864,0.0000000000
0.0097751703,0.0000000000,0.0977517032,0.0000000000
0.0097751703,0.0000000000,0.0879765415,0.0000000000
0.0195503416,0.0000000000,0.0977517032,0.0000000000
0.0195503416,0.0000000000,0.1075268864,0.0000000000
0.0195503416,0.0000000000,0.0879765415,0.0000000000
0.0195503416,0.0000000000,0.1075268864,0.0000000000
0.0195503416,0.0000000000,0.0977517032,0.0000000000
0.0097751703,0.0000000000,0.0977517032,0.0000000000
0.0195503416,0.0000000000,0.1075268864,0.0000000000
0.0195503416,0.0000000000,0.0879765415,0.0000000000
0.0293255119,0.0000000000,0.0782013654,0.0000000000
0.0293255119,0.0000000000,0.1075268864,0.0000000000
0.0391006832,0.0000000000,0.0879765415,0.0097751703
0.0488758516,0.0000000000,0.0782013654,0.0195503416
0.0488758516,0.0000000000,0.0977517032,0.0097751703
0.0391006832,0.0000000000,0.0879765415,0.0195503416
0.0391006832,0.0000000000,0.1075268864,0.0293255119
0.0488758516,0.0000000000,0.1173020482,0.0488758516
0.0488758516,0.0000000000,0.1270772218,0.0391006832
0.0488758516,0.0000000000,0.1173020482,0.0391006832
0.0586510229,0.0000000000,0.1075268864,0.0391006832
0.0586510229,0.0000000000,0.1173020482,0.0391006832
0.0586510229,0.0000000000,0.1075268864,0.0293255119
0.0488758516,0.0000000000,0.0879765415,0.0391006832
0.0391006832,0.0000000000,0.1270772218,0.0293255119
0.0488758516,0.0000000000,0.1173020482,0.0293255119
0.0488758516,0.0000000000,0.1173020482,0.0195503416
0.0488758516,0.0000000000,0.1075268864,0.0195503416
0.0488758516,0.0000000000,0.1270772218,0.0097751703
0.0586510229,0.0000000000,0.1270772218,0.0097751703
0.0586510229,0.0000000000,0.1368523955,0.0195503416
0.0586510229,0.0000000000,0.1173020482,0.0293255119
0.0684261989,0.0000000000,0.1173020482,0.0195503416
0.0684261989,0.0000000000,0.1173020482,0.0097751703
0.0586510229,0.0000000000,0.1173020482,0.0097751703
0.0586510229,0.0000000000,0.1075268864,0.0097751703
0.0684261989,0.0000000000,0.0977517032,0.0097751703
0.0782013654,0.0000000000,0.0977517032,0.0097751703
0.0782013654,0.0000000000,0.0977517032,0.0097751703
0.0879765415,0.0000000000,0.0879765415,0.0097751703
0.0782013654,0.0000000000,0.0782013654,0.0097751703
0.0879765415,0.0000000000,0.0879765415,0.0097751703
0.0879765415,0.0000000000,0.0782013654,0.0000000000
0.0977517032,0.0000000000,0.0684261989,0.0097751703
0.1270772218,0.0000000000,0.0782013654,0.0097751703
0.1075268864,0.0000000000,0.0879765415,0.0097751703
0.0977517032,0.0000000000,0.0879765415,0.0195503416
0.0879765415,0.0000000000,0.0782013654,0.0195503416
0.0879765415,0.0000000000,0.0782013654,0.0293255119
0.0684261989,0.0000000000,0.0684261989,0.0293255119
0.0879765415,0.0000000000,0.0782013654,0.0293255119
0.0977517032,0.0000000000,0.0879765415,0.0391006832
0.0782013654,0.0000000000,0.0879765415,0.0293255119
0.0684261989,0.0000000000,0.0782013654,0.0293255119
0.0586510229,0.0000000000,0.0684261989,0.0195503416
0.0488758516,0.0000000000,0.0879765415,0.0195503416
0.0488758516,0.0000000000,0.0879765415,0.0097751703
0.0391006832,0.0000000000,0.0879765415,0.0097751703
0.0391006832,0.0000000000,0.0879765415,0.0097751703
0.0391006832,0.0000000000,0.0879765415,0.0097751703
0.0391006832,0.0000000000,0.0879765415,0.0195503416
0.0391006832,0.0000000000,0.0684261989,0.0195503416
0.0391006832,0.0000000000,0.0879765415,0.0097751703
0.0293255119,0.0000000000,0.0782013654,0.0195503416
0.0293255119,0.0000000000,0.0782013654,0.0195503416
0.0195503416,0.0000000000,0.0782013654,0.0195503416
0.0293255119,0.0000000000,0.0782013654,0.0293255119
0.0195503416,0.0000000000,0.0782013654,0.0195503416
0.0195503416,0.0000000000,0.0782013654,0.0293255119
0.0195503416,0.0000000000,0.0782013654,0.0293255119
0.0195503416,0.0000000000,0.0879765415,0.0195503416
0.0195503416,0.0000000000,0.0782013654,0.0195503416
0.0195503416,0.0000000000,0.0782013654,0.0195503416
0.0097751703,0.0000000000,0.0782013654,0.0097751703
0.0195503416,0.0000000000,0.0879765415,0.0195503416
0.0195503416,0.0000000000,0.0977517032,0.0195503416
0.0097751703,0.0000000000,0.1075268864,0.0097751703
0.0097751703,0.0000000000,0.1270772218,0.0097751703
0.0097751703,0.0000000000,0.1368523955,0.0097751703
0.0097751703,0.0000000000,0.1466275596,0.0097751703
0.0097751703,0.0000000000,0.1661779165,0.0000000000
0.0097751703,0.0000000000,0.1955034160,0.0000000000
0.0097751703,0.0000000000,0.2052785873,0.0000000000
0.0097751703,0.0000000000,0.1955034160,0.0000000000
0.0097751703,0.0000000000,0.2052785873,0.0000000000
0.0195503416,0.0000000000,0.1857282543,0.0000000000
0.0195503416,0.0000000000,0.1857282543,0.0000000000
0.0195503416,0.0000000000,0.1661779165,0.0000000000
0.0195503416,0.0000000000,0.2052785873,0.0000000000
0.0293255119,0.0000000000,0.1857282543,0.0000000000
0.0293255119,0.0000000000,0.2346040964,0.0000000000
0.0391006832,0.0000000000,0.2052785873,0.0000000000
0.0293255119,0.0000000000,0.1857282543,0.0000000000
0.0195503416,0.0000000000,0.1955034160,0.0000000000
0.0195503416,0.0000000000,0.1759530782,0.0195503416
0.0097751703,0.0000000000,0.1466275596,0.0293255119
0.0097751703,0.0000000000,0.1564027309,0.0293255119
0.0097751703,0.0000000000,0.1466275596,0.0391006832
0.0097751703,0.0000000000,0.1466275596,0.0488758516
0.0097751703,0.0000000000,0.1368523955,0.0391006832
0.0097751703,0.0000000000,0.1466275596,0.0488758516
0.0000000000,0.0000000000,0.1661779165,0.0684261989
0.0000000000,0.0000000000,0.1857282543,0.0684261989
0.0000000000,0.0000000000,0.1759530782,0.0684261989
0.0000000000,0.0000000000,0.1759530782,0.0586510229
0.0000000000,0.0000000000,0.1661779165,0.0586510229
0.0000000000,0.0000000000,0.1564027309,0.0488758516
0.0000000000,0.0000000000,0.1564027309,0.0488758516
0.0000000000,0.0000000000,0.1564027309,0.0488758516
0.0097751703,0.0000000000,0.1564027309,0.0488758516
0.0097751703,0.0000000000,0.1368523955,0.0391006832
0.0195503416,0.0000000000,0.1466275596,0.0391006832
0.0195503416,0.0000000000,0.1661779165,0.0391006832
0.0195503416,0.0000000000,0.1564027309,0.0391006832
0.0195503416,0.0000000000,0.1564027309,0.0391006832
0.0195503416,0.0000000000,0.1368523955,0.0488758516
0.0195503416,0.0000000000,0.1368523955,0.0684261989
0.0097751703,0.0000000000,0.1368523955,0.0586510229
0.0097751703,0.0000000000,0.1368523955,0.0684261989
0.0097751703,0.0000000000,0.1368523955,0.0684261989
0.0097751703,0.0000000000,0.1466275596,0.0684261989
0.0097751703,0.0000000000,0.1466275596,0.0684261989
0.0097751703,0.0000000000,0.1564027309,0.0586510229
0.0195503416,0.0000000000,0.1466275596,0.0586510229
0.0195503416,0.0000000000,0.1368523955,0.0586510229
0.0195503416,0.0000000000,0.1270772218,0.0684261989
0.0195503416,0.0000000000,0.1075268864,0.0684261989
0.0293255119,0.0000000000,0.0977517032,0.0684261989
0.0195503416,0.0000000000,0.0977517032,0.0782013654
0.0195503416,0.0000000000,0.0977517032,0.0782013654
0.0097751703,0.0000000000,0.0879765415,0.0782013654
0.0097751703,0.0000000000,0.0977517032,0.0782013654
0.0097751703,0.0000000000,0.1270772218,0.0879765415
0.0097751703,0.0000000000,0.1368523955,0.0782013654
0.0195503416,0.0000000000,0.1368523955,0.0782013654
0.0097751703,0.0000000000,0.1270772218,0.0684261989
0.0097751703,0.0000000000,0.1759530782,0.0586510229
0.0097751703,0.0000000000,0.1661779165,0.0586510229
0.0097751703,0.0000000000,0.1759530782,0.0488758516
0.0097751703,0.0000000000,0.2052785873,0.0488758516
0.0097751703,0.0000000000,0.1857282543,0.0488758516
0.0097751703,0.0000000000,0.1955034160,0.0488758516
0.0195503416,0.0000000000,0.2248289346,0.0488758516
0.0195503416,0.0000000000,0.2150537729,0.0391006832
0.0097751703,0.0000000000,0.2052785873,0.0293255119
0.0097751703,0.0000000000,0.2248289346,0.0293255119
0.0195503416,0.0000000000,0.1955034160,0.0293255119
0.0195503416,0.0000000000,0.1955034160,0.0293255119
0.0195503416,0.0000000000,0.1759530782,0.0195503416
0.0195503416,0.0000000000,0.1564027309,0.0293255119
0.0097751703,0.0000000000,0.1270772218,0.0195503416
0.0097751703,0.0000000000,0.1368523955,0.0097751703
0.0097751703,0.0000000000,0.1270772218,0.0097751703
0.0097751703,0.0000000000,0.1173020482,0.0097751703
0.0097751703,0.0000000000,0.0977517032,0.0097751703
0.0097751703,0.0000000000,0.0879765415,0.0097751703
0.0097751703,0.0000000000,0.0879765415,0.0097751703
0.0097751703,0.0000000000,0.0684261989,0.0097751703
0.0195503416,0.0000000000,0.0684261989,0.0000000000
0.0097751703,0.0000000000,0.0684261989,0.0000000000
0.0097751703,0.0000000000,0.0977517032,0.0000000000
0.0097751703,0.0000000000,0.1173020482,0.0000000000
0.0097751703,0.0000000000,0.1173020482,0.0000000000
0.0097751703,0.0000000000,0.1173020482,0.0000000000
0.0097751703,0.0000000000,0.1075268864,0.0000000000
0.0097751703,0.0000000000,0.1075268864,0.0000000000
0.0097751703,0.0000000000,0.1075268864,0.0000000000
0.0097751703,0.0000000000,0.1173020482,0.0000000000
0.0097751703,0.0000000000,0.1173020482,0.0000000000
0.0097751703,0.0000000000,0.1270772218,0.0000000000
0.0097751703,0.0000000000,0.1075268864,0.0000000000
0.0097751703,0.0000000000,0.1075268864,0.0000000000
0.0097751703,0.0000000000,0.0879765415,0.0000000000
0.0097751703,0.0000000000,0.1075268864,0.0000000000
0.0097751703,0.0000000000,0.0879765415,0.0000000000
0.0097751703,0.0000000000,0.1075268864,0.0000000000
0.0097751703,0.0000000000,0.1173020482,0.0000000000
0.0195503416,0.0000000000,0.1075268864,0.0000000000
0.0195503416,0.0000000000,0.1173020482,0.0000000000
0.0195503416,0.0000000000,0.1173020482,0.0000000000
0.0195503416,0.0000000000,0.1075268864,0.0000000000
0.0195503416,0.0000000000,0.0977517032,0.0000000000
0.0195503416,0.0000000000,0.1075268864,0.0000000000
0.0293255119,0.0000000000,0.0977517032,0.0000000000
0.0391006832,0.0000000000,0.0879765415,0.0000000000
0.0391006832,0.0000000000,0.0977517032,0.0000000000
0.0391006832,0.0000000000,0.0977517032,0.0097751703
0.0391006832,0.0000000000,0.0977517032,0.0097751703
0.0391006832,0.0000000000,0.0977517032,0.0097751703
0.0391006832,0.0000000000,0.0977517032,0.0097751703
0.0293255119,0.0000000000,0.0879765415,0.0097751703
0.0293255119,0.0000000000,0.0879765415,0.0000000000
0.0488758516,0.0000000000,0.0879765415,0.0000000000
0.0488758516,0.0000000000,0.0782013654,0.0000000000
0.0488758516,0.0000000000,0.0782013654,0.0000000000
0.0391006832,0.0000000000,0.0684261989,0.0097751703
0.0391006832,0.0000000000,0.0684261989,0.0097751703
0.0391006832,0.0000000000,0.0586510229,0.0097751703
0.0391006832,0.0000000000,0.0782013654,0.0097751703
0.0391006832,0.0000000000,0.0684261989,0.0097751703
0.0586510229,0.0000000000,0.0586510229,0.0097751703
0.0684261989,0.0000000000,0.0586510229,0.0097751703
0.0684261989,0.0000000000,0.0488758516,0.0097751703
0.0586510229,0.0000000000,0.0684261989,0.0000000000
0.0684261989,0.0000000000,0.0684261989,0.0000000000
0.0586510229,0.0000000000,0.0586510229,0.0000000000
0.0586510229,0.0000000000,0.0782013654,0.0000000000
0.0586510229,0.0000000000,0.0782013654,0.0000000000
0.0586510229,0.0000000000,0.0586510229,0.0097751703
0.0586510229,0.0000000000,0.0879765415,0.0488758516
0.0684261989,0.0000000000,0.0879765415,0.0391006832
0.0684261989,0.0000000000,0.0782013654,0.0293255119
0.0782013654,0.0000000000,0.0684261989,0.0195503416
0.0879765415,0.0000000000,0.0684261989,0.0097751703
0.0879765415,0.0000000000,0.0586510229,0.0097751703
0.0879765415,0.0000000000,0.0391006832,0.0097751703
0.0879765415,0.0000000000,0.0586510229,0.0195503416
0.0782013654,0.0000000000,0.0488758516,0.0195503416
0.0977517032,0.0000000000,0.0488758516,0.0195503416
0.0879765415,0.0000000000,0.0488758516,0.0195503416
0.0977517032,0.0000000000,0.0586510229,0.0097751703
0.0879765415,0.0000000000,0.0586510229,0.0097751703
0.0879765415,0.0000000000,0.0488758516,0.0097751703
0.0977517032,0.0000000000,0.0488758516,0.0000000000
0.0977517032,0.0000000000,0.0586510229,0.0000000000
0.1368523955,0.0000000000,0.0684261989,0.0000000000
0.1173020482,0.0000000000,0.0586510229,0.0000000000
0.1075268864,0.0000000000,0.0586510229,0.0000000000
0.1075268864,0.0000000000,0.0586510229,0.0000000000
0.1075268864,0.0000000000,0.0586510229,0.0000000000
0.1075268864,0.0000000000,0.0488758516,0.0000000000
0.0977517032,0.0000000000,0.0684261989,0.0000000000
0.0879765415,0.0000000000,0.0684261989,0.0097751703
0.0879765415,0.0000000000,0.0684261989,0.0293255119
0.0977517032,0.0000000000,0.0684261989,0.0293255119
0.0977517032,0.0000000000,0.0782013654,0.0293255119
0.0977517032,0.0000000000,0.0684261989,0.0195503416
0.0879765415,0.0000000000,0.0684261989,0.0195503416
0.0782013654,0.0000000000,0.0684261989,0.0097751703
0.0684261989,0.0000000000,0.0586510229,0.0097751703
0.0586510229,0.0000000000,0.0488758516,0.0195503416
0.0586510229,0.0000000000,0.0586510229,0.0293255119
0.0488758516,0.0000000000,0.0488758516,0.0293255119
0.0391006832,0.0000000000,0.0488758516,0.0293255119
0.0293255119,0.0000000000,0.0488758516,0.0195503416
0.0391006832,0.0000000000,0.0684261989,0.0293255119
0.0391006832,0.0000000000,0.0684261989,0.0391006832
0.0293255119,0.0000000000,0.0586510229,0.0293255119
0.0293255119,0.0000000000,0.0684261989,0.0293255119
0.0195503416,0.0000000000,0.0684261989,0.0293255119
0.0195503416,0.0000000000,0.0684261989,0.0195503416
0.0195503416,0.0000000000,0.0684261989,0.0097751703
0.0097751703,0.0000000000,0.0684261989,0.0097751703
0.0195503416,0.0000000000,0.0782013654,0.0097751703
0.0195503416,0.0000000000,0.0782013654,0.0097751703
0.0195503416,0.0000000000,0.0684261989,0.0097751703
0.0097751703,0.0000000000,0.0684261989,0.0097751703
0.0097751703,0.0000000000,0.0586510229,0.0097751703
0.0195503416,0.0000000000,0.0586510229,0.0097751703
0.0195503416,0.0000000000,0.0586510229,0.0097751703
0.0195503416,0.0000000000,0.0684261989,0.0000000000
0.0195503416,0.0000000000,0.0586510229,0.0000000000
0.0195503416,0.0000000000,0.0586510229,0.0000000000
0.0293255119,0.0000000000,0.0684261989,0.0000000000
0.0879765415,0.0000000000,0.0782013654,0.0000000000
0.0782013654,0.0000000000,0.0977517032,0.0000000000
0.0684261989,0.0000000000,0.0879765415,0.0000000000
0.0586510229,0.0000000000,0.0977517032,0.0000000000
0.0488758516,0.0000000000,0.1075268864,0.0000000000
0.0391006832,0.0000000000,0.0977517032,0.0000000000
0.0391006832,0.0000000000,0.1075268864,0.0000000000
0.0391006832,0.0000000000,0.0977517032,0.0000000000
0.0293255119,0.0000000000,0.1075268864,0.0000000000
0.0391006832,0.0000000000,0.1173020482,0.0000000000
0.0293255119,0.0000000000,0.1173020482,0.0000000000
0.0293255119,0.0000000000,0.1173020482,0.0000000000
0.0195503416,0.0000000000,0.1075268864,0.0000000000
0.0195503416,0.0000000000,0.1075268864,0.0000000000
0.0097751703,0.0000000000,0.0977517032,0.0000000000
0.0097751703,0.0000000000,0.0977517032,0.0097751703
0.0097751703,0.0000000000,0.0879765415,0.0097751703
0.0097751703,0.0000000000,0.0879765415,0.0097751703
0.0097751703,0.0000000000,0.0977517032,0.0195503416
0.0097751703,0.0000000000,0.0977517032,0.0195503416
0.0000000000,0.0000000000,0.0879765415,0.0195503416
0.0097751703,0.0000000000,0.0879765415,0.0097751703
0.0097751703,0.0000000000,0.1075268864,0.0195503416
0.0097751703,0.0000000000,0.0977517032,0.0195503416
0.0097751703,0.0000000000,0.0977517032,0.0195503416
0.0097751703,0.0000000000,0.0879765415,0.0195503416
0.0097751703,0.0000000000,0.1075268864,0.0293255119
0.0195503416,0.0000000000,0.0977517032,0.0195503416
0.0195503416,0.0000000000,0.0977517032,0.0195503416
0.0097751703,0.0000000000,0.0879765415,0.0195503416
0.0097751703,0.0000000000,0.0977517032,0.0293255119
0.0097751703,0.0000000000,0.0977517032,0.0293255119
0.0195503416,0.0000000000,0.1075268864,0.0391006832
0.0195503416,0.0000000000,0.1075268864,0.0293255119
0.0097751703,0.0000000000,0.1075268864,0.0391006832
0.0097751703,0.0000000000,0.1075268864,0.0391006832
0.0097751703,0.0000000000,0.0879765415,0.0391006832
0.0097751703,0.0000000000,0.0782013654,0.0977517032
0.0097751703,0.0000000000,0.0782013654,0.0879765415
0.0195503416,0.0000000000,0.0782013654,0.0977517032
0.0195503416,0.0000000000,0.0684261989,0.0879765415
0.0195503416,0.0000000000,0.0782013654,0.0782013654
0.0195503416,0.0000000000,0.0684261989,0.0684261989
0.0195503416,0.0000000000,0.0684261989,0.0684261989
0.0097751703,0.0000000000,0.0782013654,0.0684261989
0.0097751703,0.0000000000,0.0782013654,0.0684261989
0.0097751703,0.0000000000,0.0879765415,0.0684261989
0.0097751703,0.0000000000,0.0879765415,0.0684261989
0.0097751703,0.0000000000,0.0879765415,0.0684261989
0.0195503416,0.0000000000,0.0879765415,0.0782013654
0.0195503416,0.0000000000,0.0879765415,0.1075268864
0.0195503416,0.0000000000,0.0782013654,0.1173020482
0.0097751703,0.0000000000,0.0782013654,0.1075268864
0.0097751703,0.0000000000,0.0977517032,0.0977517032
0.0097751703,0.0000000000,0.0977517032,0.0977517032
0.0097751703,0.0000000000,0.0977517032,0.0977517032
0.0097751703,0.0000000000,0.0879765415,0.0879765415
0.0097751703,0.0000000000,0.0879765415,0.0879765415
0.0097751703,0.0000000000,0.0977517032,0.0782013654
0.0097751703,0.0000000000,0.0879765415,0.0782013654
0.0097751703,0.0000000000,0.0977517032,0.0684261989
0.0097751703,0.0000000000,0.0977517032,0.0586510229
0.0097751703,0.0000000000,0.0977517032,0.0586510229
0.0097751703,0.0000000000,0.0977517032,0.0488758516
0.0097751703,0.0000000000,0.1075268864,0.0391006832
0.0097751703,0.0000000000,0.0977517032,0.0293255119
0.0097751703,0.0000000000,0.0977517032,0.0391006832
0.0097751703,0.0000000000,0.0977517032,0.0684261989
0.0195503416,0.0000000000,0.0977517032,0.0684261989
0.0195503416,0.0000000000,0.1075268864,0.0684261989
0.0097751703,0.0000000000,0.0977517032,0.0586510229
0.0195503416,0.0000000000,0.0879765415,0.0586510229
0.0195503416,0.0000000000,0.0977517032,0.0391006832
0.0195503416,0.0000000000,0.1075268864,0.0586510229
0.0293255119,0.0000000000,0.1173020482,0.0586510229
0.0195503416,0.0000000000,0.1270772218,0.0488758516
0.0391006832,0.0000000000,0.1368523955,0.0488758516
0.0293255119,0.0000000000,0.1270772218,0.0391006832
0.0293255119,0.0000000000,0.1466275596,0.0391006832
0.0391006832,0.0000000000,0.1368523955,0.0391006832
0.0293255119,0.0000000000,0.1270772218,0.0391006832
0.0293255119,0.0000000000,0.1173020482,0.0391006832
0.0195503416,0.0000000000,0.1173020482,0.0293255119
0.0195503416,0.0000000000,0.1075268864,0.0293255119
0.0195503416,0.0000000000,0.1173020482,0.0195503416
0.0195503416,0.0000000000,0.1173020482,0.0195503416
0.0293255119,0.0000000000,0.1270772218,0.0195503416
0.0293255119,0.0000000000,0.1173020482,0.0293255119
0.0293255119,0.0000000000,0.1270772218,0.0293255119
0.0293255119,0.0000000000,0.1270772218,0.0391006832
0.0293255119,0.0000000000,0.1075268864,0.0293255119
0.0293255119,0.0000000000,0.0977517032,0.0195503416
0.0195503416,0.0000000000,0.0977517032,0.0195503416
0.0391006832,0.0000000000,0.0879765415,0.0195503416
0.0391006832,0.0000000000,0.0782013654,0.0097751703
0.0391006832,0.0000000000,0.0879765415,0.0097751703
0.0391006832,0.0000000000,0.0879765415,0.0097751703
0.0488758516,0.0000000000,0.0879765415,0.0000000000
0.0488758516,0.0000000000,0.0879765415,0.0097751703
0.0586510229,0.0000000000,0.0782013654,0.0097751703
0.0586510229,0.0000000000,0.0782013654,0.0000000000
0.0586510229,0.0000000000,0.0782013654,0.0000000000
0.0586510229,0.0000000000,0.0879765415,0.0000000000
0.0684261989,0.0000000000,0.0782013654,0.0000000000
0.0684261989,0.0000000000,0.0782013654,0.0000000000
0.0684261989,0.0000000000,0.0782013654,0.0000000000
0.0684261989,0.0000000000,0.0684261989,0.0000000000
0.0586510229,0.0000000000,0.0586510229,0.0000000000
0.0586510229,0.0000000000,0.0684261989,0.0000000000
0.0488758516,0.0000000000,0.0684261989,0.0000000000
0.0782013654,0.0000000000,0.0684261989,0.0000000000
0.0684261989,0.0000000000,0.0684261989,0.0097751703
0.0684261989,0.0000000000,0.0586510229,0.0097751703
0.0782013654,0.0000000000,0.0488758516,0.0097751703
0.0782013654,0.0000000000,0.0586510229,0.0097751703
0.0684261989,0.0000000000,0.0488758516,0.0293255119
0.0586510229,0.0000000000,0.0488758516,0.0488758516
0.0586510229,0.0000000000,0.0488758516,0.0391006832
0.0684261989,0.0000000000,0.0586510229,0.0293255119
0.0782013654,0.0000000000,0.0488758516,0.0195503416
0.0977517032,0.0000000000,0.0488758516,0.0195503416
0.0879765415,0.0000000000,0.0488758516,0.0195503416
0.0879765415,0.0000000000,0.0488758516,0.0097751703
0.0977517032,0.0000000000,0.0488758516,0.0097751703
0.1173020482,0.0000000000,0.0488758516,0.0097751703
0.1075268864,0.0000000000,0.0488758516,0.0097751703
0.1173020482,0.0000000000,0.0488758516,0.0000000000
0.1466275596,0.0000000000,0.0488758516,0.0000000000
0.1270772218,0.0000000000,0.0488758516,0.0000000000
0.1075268864,0.0000000000,0.0488758516,0.0000000000
0.1270772218,0.0000000000,0.0488758516,0.0000000000
0.1173020482,0.0000000000,0.0488758516,0.0195503416
0.0977517032,0.0000000000,0.0488758516,0.0293255119
0.0879765415,0.0000000000,0.0586510229,0.0293255119
0.0782013654,0.0000000000,0.0488758516,0.0293255119
0.0684261989,0.0000000000,0.0488758516,0.0293255119
0.0684261989,0.0000000000,0.0488758516,0.0195503416
0.0684261989,0.0000000000,0.0391006832,0.0195503416
0.0488758516,0.0000000000,0.0391006832,0.0097751703
0.0488758516,0.0000000000,0.0391006832,0.0097751703
0.0586510229,0.0000000000,0.0488758516,0.0195503416
0.0488758516,0.0000000000,0.0488758516,0.0391006832
0.0391006832,0.0000000000,0.0488758516,0.0293255119
0.0293255119,0.0000000000,0.0488758516,0.0195503416
0.0293255119,0.0000000000,0.0488758516,0.0195503416
0.0293255119,0.0000000000,0.0586510229,0.0195503416
0.0293255119,0.0000000000,0.0488758516,0.0097751703
0.0293255119,0.0000000000,0.0488758516,0.0097751703
0.0195503416,0.0000000000,0.0586510229,0.0097751703
0.0195503416,0.0000000000,0.0586510229,0.0097751703
0.0195503416,0.0000000000,0.0684261989,0.0097751703
0.0195503416,0.0000000000,0.0782013654,0.0097751703
0.0195503416,0.0000000000,0.0782013654,0.0097751703
0.0097751703,0.0000000000,0.0879765415,0.0097751703
0.0195503416,0.0000000000,0.1075268864,0.0097751703
0.0195503416,0.0000000000,0.0977517032,0.0097751703
0.0195503416,0.0000000000,0.1270772218,0.0097751703
0.0097751703,0.0000000000,0.1270772218,0.0097751703
0.0097751703,0.0000000000,0.1466275596,0.0097751703
0.0097751703,0.0000000000,0.1466275596,0.0097751703
0.0097751703,0.0000000000,0.1466275596,0.0097751703
0.0195503416,0.0000000000,0.1466275596,0.0097751703
0.0195503416,0.0000000000,0.1466275596,0.0097751703
0.0097751703,0.0000000000,0.1564027309,0.0097751703
0.0293255119,0.0000000000,0.1466275596,0.0097751703
0.0391006832,0.0000000000,0.1368523955,0.0097751703
0.0586510229,0.0000000000,0.1270772218,0.0097751703
0.0586510229,0.0000000000,0.1270772218,0.0097751703
0.0488758516,0.0000000000,0.1466275596,0.0000000000
0.0293255119,0.0000000000,0.1368523955,0.0000000000
0.0293255119,0.0000000000,0.1270772218,0.0000000000
0.0293255119,0.0000000000,0.1270772218,0.0000000000
0.0293255119,0.0000000000,0.1270772218,0.0000000000
0.0195503416,0.0000000000,0.1270772218,0.0000000000
0.0195503416,0.0000000000,0.1270772218,0.0000000000
0.0195503416,0.0000000000,0.1173020482,0.0097751703
0.0195503416,0.0000000000,0.1173020482,0.0195503416
0.0195503416,0.0000000000,0.1270772218,0.0097751703
0.0097751703,0.0000000000,0.1270772218,0.0097751703
0.0195503416,0.0000000000,0.1368523955,0.0097751703
0.0195503416,0.0000000000,0.1173020482,0.0195503416
0.0195503416,0.0000000000,0.1173020482,0.0097751703
0.0097751703,0.0000000000,0.1270772218,0.0097751703
0.0097751703,0.0000000000,0.1466275596,0.0097751703
0.0097751703,0.0000000000,0.1466275596,0.0097751703
0.0195503416,0.0000000000,0.1270772218,0.0097751703
0.0293255119,0.0000000000,0.1466275596,0.0000000000
0.0293255119,0.0000000000,0.1270772218,0.0000000000
0.0195503416,0.0000000000,0.1270772218,0.0097751703
0.0195503416,0.0000000000,0.1368523955,0.0097751703
0.0195503416,0.0000000000,0.1270772218,0.0097751703
0.0195503416,0.0000000000,0.1564027309,0.0000000000
0.0195503416,0.0000000000,0.1466275596,0.0097751703
0.0195503416,0.0000000000,0.1368523955,0.0097751703
0.0195503416,0.0000000000,0.1270772218,0.0000000000
0.0097751703,0.0000000000,0.1368523955,0.0000000000
0.0195503416,0.0000000000,0.1270772218,0.0000000000
0.0195503416,0.0000000000,0.1173020482,0.0000000000
0.0097751703,0.0000000000,0.1270772218,0.0000000000
0.0097751703,0.0000000000,0.1368523955,0.0000000000
0.0195503416,0.0000000000,0.1564027309,0.0000000000
0.0195503416,0.0000000000,0.1466275596,0.0000000000
0.0195503416,0.0000000000,0.1368523955,0.0000000000
0.0195503416,0.0000000000,0.1270772218,0.0000000000
0.0195503416,0.0000000000,0.1173020482,0.0097751703
0.0097751703,0.0000000000,0.1075268864,0.0097751703
0.0097751703,0.0000000000,0.1173020482,0.0097751703
0.0097751703,0.0000000000,0.1270772218,0.0097751703
0.0097751703,0.0000000000,0.1270772218,0.0293255119
0.0097751703,0.0000000000,0.1368523955,0.0293255119
0.0195503416,0.0000000000,0.1270772218,0.0293255119
0.0195503416,0.0000000000,0.1270772218,0.0293255119
0.0195503416,0.0000000000,0.1270772218,0.0293255119
0.0097751703,0.0000000000,0.1270772218,0.0293255119
0.0097751703,0.0000000000,0.1270772218,0.0391006832
0.0097751703,0.0000000000,0.1466275596,0.0391006832
0.0097751703,0.0000000000,0.1466275596,0.0488758516
0.0097751703,0.0000000000,0.1661779165,0.0488758516
0.0097751703,0.0000000000,0.1661779165,0.0586510229
0.0097751703,0.0000000000,0.1466275596,0.0586510229
0.0195503416,0.0000000000,0.1466275596,0.0977517032
0.0097751703,0.0000000000,0.1466275596,0.1075268864
0.0097751703,0.0000000000,0.1368523955,0.0977517032
0.0097751703,0.0000000000,0.1368523955,0.0879765415
0.0097751703,0.0000000000,0.1270772218,0.0879765415
0.0097751703,0.0000000000,0.1173020482,0.0782013654
0.0097751703,0.0000000000,0.1270772218,0.0782013654
0.0097751703,0.0000000000,0.1270772218,0.0684261989
0.0097751703,0.0000000000,0.1270772218,0.0684261989
0.0000000000,0.0000000000,0.1270772218,0.0684261989
0.0097751703,0.0000000000,0.1270772218,0.0684261989
0.0097751703,0.0000000000,0.1368523955,0.0782013654
0.0097751703,0.0000000000,0.1466275596,0.0879765415
0.0097751703,0.0000000000,0.1270772218,0.0879765415
0.0097751703,0.0000000000,0.1173020482,0.0879765415
0.0097751703,0.0000000000,0.1270772218,0.0879765415
0.0097751703,0.0000000000,0.1173020482,0.0782013654
0.0097751703,0.0000000000,0.1270772218,0.0782013654
0.0097751703,0.0000000000,0.1270772218,0.1075268864
0.0000000000,0.0000000000,0.1173020482,0.0977517032
0.0000000000,0.0000000000,0.1270772218,0.0879765415
0.0097751703,0.0000000000,0.1075268864,0.0684261989
0.0097751703,0.0000000000,0.1075268864,0.0684261989
0.0000000000,0.0000000000,0.1075268864,0.0586510229
0.0000000000,0.0000000000,0.1075268864,0.0488758516
0.0000000000,0.0000000000,0.0977517032,0.0391006832
0.0000000000,0.0000000000,0.0782013654,0.0391006832
0.0097751703,0.0000000000,0.0782013654,0.0488758516
0.0097751703,0.0000000000,0.0684261989,0.0391006832
0.0097751703,0.0000000000,0.0684261989,0.0293255119
0.0097751703,0.0000000000,0.0488758516,0.0293255119
0.0195503416,0.0000000000,0.0488758516,0.0293255119
0.0195503416,0.0000000000,0.0488758516,0.0293255119
0.0293255119,0.0000000000,0.0488758516,0.0195503416
0.0293255119,0.0000000000,0.0488758516,0.0195503416
0.0293255119,0.0000000000,0.0586510229,0.0097751703
0.0391006832,0.0000000000,0.0488758516,0.0097751703
0.0391006832,0.0000000000,0.0684261989,0.0097751703
0.0391006832,0.0000000000,0.0586510229,0.0097751703
0.0391006832,0.0000000000,0.0684261989,0.0000000000
0.0293255119,0.0000000000,0.0586510229,0.0097751703
0.0293255119,0.0000000000,0.0684261989,0.0000000000
0.0293255119,0.0000000000,0.0586510229,0.0000000000
0.0293255119,0.0000000000,0.0586510229,0.0000000000
0.0391006832,0.0000000000,0.0586510229,0.0000000000
0.0293255119,0.0000000000,0.0586510229,0.0000000000
0.0293255119,0.0000000000,0.0684261989,0.0000000000
0.0195503416,0.0000000000,0.0586510229,0.0000000000
0.0195503416,0.0000000000,0.0586510229,0.0000000000
0.0293255119,0.0000000000,0.0684261989,0.0000000000
0.0293255119,0.0000000000,0.0586510229,0.0000000000
0.0293255119,0.0000000000,0.0488758516,0.0000000000
0.0293255119,0.0000000000,0.0488758516,0.0000000000
0.0293255119,0.0000000000,0.0391006832,0.0000000000
0.0293255119,0.0000000000,0.0488758516,0.0000000000
0.0391006832,0.0000000000,0.0488758516,0.0097751703
0.0391006832,0.0000000000,0.0586510229,0.0097751703
0.0391006832,0.0000000000,0.0488758516,0.0293255119
0.0391006832,0.0000000000,0.0488758516,0.0488758516
0.0391006832,0.0000000000,0.0488758516,0.0391006832
0.0391006832,0.0000000000,0.0586510229,0.0293255119
0.0391006832,0.0000000000,0.0684261989,0.0293255119
0.0488758516,0.0000000000,0.0684261989,0.0195503416
0.0586510229,0.0000000000,0.0684261989,0.0195503416
0.0684261989,0.0000000000,0.0586510229,0.0195503416
0.0879765415,0.0000000000,0.0586510229,0.0195503416
0.1173020482,0.0000000000,0.0684261989,0.0391006832
0.1173020482,0.0000000000,0.0586510229,0.0586510229
0.1466275596,0.0000000000,0.0488758516,0.0488758516
0.1466275596,0.0000000000,0.0488758516,0.0391006832
0.1270772218,0.0000000000,0.0586510229,0.0293255119
0.1173020482,0.0000000000,0.0586510229,0.0293255119
0.1564027309,0.0000000000,0.0488758516,0.0293255119
0.1564027309,0.0000000000,0.0488758516,0.0195503416
0.1466275596,0.0000000000,0.0488758516,0.0195503416
0.1368523955,0.0000000000,0.0586510229,0.0195503416
0.1270772218,0.0000000000,0.0488758516,0.0195503416
0.1173020482,0.0000000000,0.0488758516,0.0195503416
0.1075268864,0.0000000000,0.0391006832,0.0097751703
0.1075268864,0.0000000000,0.0488758516,0.0097751703
0.1270772218,0.0000000000,0.0586510229,0.0195503416
0.1270772218,0.0000000000,0.0586510229,0.0097751703
0.1173020482,0.0000000000,0.0488758516,0.0097751703
0.1270772218,0.0000000000,0.0391006832,0.0097751703
0.1075268864,0.0000000000,0.0488758516,0.0195503416
0.1173020482,0.0000000000,0.0488758516,0.0195503416
0.1173020482,0.0000000000,0.0391006832,0.0195503416
0.1173020482,0.0000000000,0.0391006832,0.0097751703
0.1270772218,0.0000000000,0.0488758516,0.0097751703
0.1075268864,0.0000000000,0.0391006832,0.0097751703
0.0977517032,0.0000000000,0.0488758516,0.0097751703
0.0879765415,0.0000000000,0.0586510229,0.0097751703
0.0782013654,0.0000000000,0.0586510229,0.0000000000
0.0782013654,0.0000000000,0.0488758516,0.0097751703
0.0684261989,0.0000000000,0.0488758516,0.0000000000
0.0586510229,0.0000000000,0.0684261989,0.0000000000
0.0488758516,0.0000000000,0.0684261989,0.0000000000
0.0586510229,0.0000000000,0.0586510229,0.0000000000
0.0488758516,0.0000000000,0.0586510229,0.0000000000
0.0488758516,0.0000000000,0.0586510229,0.0000000000
0.0391006832,0.0000000000,0.0488758516,0.0000000000
0.0391006832,0.0000000000,0.0488758516,0.0000000000
0.0391006832,0.0000000000,0.0488758516,0.0000000000
0.0391006832,0.0000000000,0.0488758516,0.0097751703
0.0293255119,0.0000000000,0.0684261989,0.0000000000
0.0195503416,0.0000000000,0.0488758516,0.0097751703
0.0195503416,0.0000000000,0.0488758516,0.0195503416
0.0293255119,0.0000000000,0.0586510229,0.0488758516
0.0293255119,0.0000000000,0.0391006832,0.0488758516
0.0293255119,0.0000000000,0.0488758516,0.0391006832
0.0488758516,0.0000000000,0.0586510229,0.0293255119
0.0391006832,0.0000000000,0.0586510229,0.0293255119
0.0391006832,0.0000000000,0.0586510229,0.0195503416
0.0391006832,0.0000000000,0.0586510229,0.0195503416
0.0488758516,0.0000000000,0.0586510229,0.0097751703
0.0391006832,0.0000000000,0.0684261989,0.0097751703
0.0391006832,0.0000000000,0.0782013654,0.0097751703
0.0293255119,0.0000000000,0.0684261989,0.0097751703
0.0293255119,0.0000000000,0.0684261989,0.0097751703
0.0391006832,0.0000000000,0.0684261989,0.0097751703
0.0391006832,0.0000000000,0.0586510229,0.0000000000
0.0391006832,0.0000000000,0.0586510229,0.0097751703
0.0488758516,0.0000000000,0.0586510229,0.0097751703
0.0391006832,0.0000000000,0.0684261989,0.0000000000
0.0391006832,0.0000000000,0.0684261989,0.0097751703
0.0391006832,0.0000000000,0.0684261989,0.0000000000
0.0293255119,0.0000000000,0.0782013654,0.0000000000
0.0293255119,0.0000000000,0.0782013654,0.0000000000
0.0391006832,0.0000000000,0.0684261989,0.0097751703
0.0391006832,0.0000000000,0.0782013654,0.0097751703
0.0391006832,0.0000000000,0.0684261989,0.0000000000
0.0488758516,0.0000000000,0.0684261989,0.0097751703
0.0488758516,0.0000000000,0.0586510229,0.0097751703
0.0391006832,0.0000000000,0.0586510229,0.0097751703
0.0293255119,0.0000000000,0.0684261989,0.0097751703
0.0293255119,0.0000000000,0.0684261989,0.0097751703
0.0293255119,0.0000000000,0.0782013654,0.0097751703
0.0195503416,0.0000000000,0.0782013654,0.0097751703
0.0195503416,0.0000000000,0.0782013654,0.0097751703
0.0195503416,0.0000000000,0.0977517032,0.0097751703
0.0195503416,0.0000000000,0.1075268864,0.0097751703
0.0195503416,0.0000000000,0.1075268864,0.0000000000
0.0293255119,0.0000000000,0.1075268864,0.0097751703
0.0293255119,0.0000000000,0.1173020482,0.0097751703
0.0293255119,0.0000000000,0.1368523955,0.0000000000
0.0293255119,0.0000000000,0.1270772218,0.0097751703
0.0391006832,0.0000000000,0.1173020482,0.0000000000
0.0293255119,0.0000000000,0.1075268864,0.0000000000
0.0293255119,0.0000000000,0.1075268864,0.0000000000
0.0293255119,0.0000000000,0.1173020482,0.0000000000
0.0293255119,0.0000000000,0.1368523955,0.0097751703
0.0293255119,0.0000000000,0.1564027309,0.0000000000
0.0195503416,0.0000000000,0.1661779165,0.0097751703
0.0195503416,0.0000000000,0.1661779165,0.0097751703
0.0195503416,0.0000000000,0.1564027309,0.0097751703
0.0293255119,0.0000000000,0.1564027309,0.0097751703
0.0293255119,0.0000000000,0.1466275596,0.0097751703
0.0195503416,0.0000000000,0.1466275596,0.0097751703
0.0195503416,0.0000000000,0.1466275596,0.0097751703
0.0195503416,0.0000000000,0.1466275596,0.0097751703
0.0195503416,0.0000000000,0.1368523955,0.0097751703
0.0293255119,0.0000000000,0.1368523955,0.0195503416
0.0195503416,0.0000000000,0.1270772218,0.0195503416
0.0195503416,0.0000000000,0.1564027309,0.0195503416
0.0195503416,0.0000000000,0.1661779165,0.0293255119
0.0195503416,0.0000000000,0.1564027309,0.0293255119
0.0293255119,0.0000000000,0.1368523955,0.0293255119
0.0195503416,0.0000000000,0.1564027309,0.0293255119
0.0195503416,0.0000000000,0.1466275596,0.0391006832
0.0195503416,0.0000000000,0.1368523955,0.0293255119
0.0195503416,0.0000000000,0.1368523955,0.0488758516
0.0195503416,0.0000000000,0.1466275596,0.0684261989
0.0293255119,0.0000000000,0.1368523955,0.0684261989
0.0195503416,0.0000000000,0.1368523955,0.0586510229
0.0195503416,0.0000000000,0.1368523955,0.0586510229
0.0195503416,0.0000000000,0.1270772218,0.0782013654
0.0293255119,0.0000000000,0.1173020482,0.0684261989
0.0195503416,0.0000000000,0.1075268864,0.0684261989
0.0293255119,0.0000000000,0.1075268864,0.0684261989
0.0195503416,0.0000000000,0.1270772218,0.0586510229
0.0293255119,0.0000000000,0.1173020482,0.0586510229
0.0293255119,0.0000000000,0.1564027309,0.0586510229
0.0195503416,0.0000000000,0.1661779165,0.0586510229
0.0195503416,0.0000000000,0.1466275596,0.0684261989
0.0195503416,0.0000000000,0.1270772218,0.0684261989
0.0293255119,0.0000000000,0.1173020482,0.0684261989
0.0293255119,0.0000000000,0.1075268864,0.0684261989
0.0293255119,0.0000000000,0.0879765415,0.0782013654
0.0195503416,0.0000000000,0.0977517032,0.0879765415
0.0195503416,0.0000000000,0.1075268864,0.0977517032
0.0195503416,0.0000000000,0.0977517032,0.0879765415
0.0195503416,0.0000000000,0.1075268864,0.0782013654
0.0195503416,0.0000000000,0.1075268864,0.0684261989
0.0195503416,0.0000000000,0.0977517032,0.0684261989
0.0195503416,0.0000000000,0.0977517032,0.0488758516
0.0195503416,0.0000000000,0.0977517032,0.0684261989
0.0293255119,0.0000000000,0.0977517032,0.0684261989
0.0293255119,0.0000000000,0.0977517032,0.0586510229
0.0293255119,0.0000000000,0.0977517032,0.0488758516
0.0293255119,0.0000000000,0.0977517032,0.0391006832
0.0293255119,0.0000000000,0.0879765415,0.0391006832
0.0293255119,0.0000000000,0.0879765415,0.0293255119
0.0293255119,0.0000000000,0.1075268864,0.0293255119
0.0293255119,0.0000000000,0.0977517032,0.0293255119
0.0293255119,0.0000000000,0.0782013654,0.0293255119
0.0293255119,0.0000000000,0.0977517032,0.0195503416
0.0391006832,0.0000000000,0.0977517032,0.0293255119
0.0391006832,0.0000000000,0.0879765415,0.0293255119
0.0391006832,0.0000000000,0.0782013654,0.0293255119
0.0391006832,0.0000000000,0.0782013654,0.0293255119
0.0293255119,0.0000000000,0.0782013654,0.0195503416
0.0391006832,0.0000000000,0.0684261989,0.0195503416
0.0391006832,0.0000000000,0.0586510229,0.0195503416
0.0391006832,0.0000000000,0.0586510229,0.0195503416
0.0391006832,0.0000000000,0.0684261989,0.0195503416
0.0293255119,0.0000000000,0.0586510229,0.0097751703
0.0293255119,0.0000000000,0.0586510229,0.0097751703
0.0391006832,0.0000000000,0.0586510229,0.0097751703
0.0293255119,0.0000000000,0.0586510229,0.0097751703
0.0391006832,0.0000000000,0.0586510229,0.0097751703
0.0488758516,0.0000000000,0.0586510229,0.0097751703
0.0488758516,0.0000000000,0.0586510229,0.0000000000
0.0488758516,0.0000000000,0.0684261989,0.0000000000
0.0488758516,0.0000000000,0.0684261989,0.0097751703
0.0586510229,0.0000000000,0.0684261989,0.0000000000
0.0586510229,0.0000000000,0.0684261989,0.0097751703
0.0782013654,0.0000000000,0.0684261989,0.0000000000
0.0879765415,0.0000000000,0.0684261989,0.0000000000
0.0782013654,0.0000000000,0.0782013654,0.0000000000
0.0977517032,0.0000000000,0.0782013654,0.0000000000
0.0977517032,0.0000000000,0.0782013654,0.0000000000
0.1075268864,0.0000000000,0.0684261989,0.0000000000
0.1368523955,0.0000000000,0.0684261989,0.0000000000
0.1270772218,0.0000000000,0.0782013654,0.0000000000
0.1270772218,0.0000000000,0.0782013654,0.0000000000
0.1270772218,0.0000000000,0.0586510229,0.0000000000
0.1270772218,0.0000000000,0.0684261989,0.0097751703
0.1173020482,0.0000000000,0.0586510229,0.0000000000
0.1270772218,0.0000000000,0.0586510229,0.0097751703
0.1661779165,0.0000000000,0.0684261989,0.0488758516
0.1466275596,0.0000000000,0.0684261989,0.0586510229
0.1466275596,0.0000000000,0.0586510229,0.0488758516
0.1466275596,0.0000000000,0.0586510229,0.0488758516
0.1466275596,0.0000000000,0.0586510229,0.0391006832
0.1368523955,0.0000000000,0.0488758516,0.0391006832
0.1270772218,0.0000000000,0.0586510229,0.0195503416
0.1368523955,0.0000000000,0.0586510229,0.0195503416
0.1173020482,0.0000000000,0.0586510229,0.0195503416
0.1075268864,0.0000000000,0.0586510229,0.0195503416
0.0977517032,0.0000000000,0.0586510229,0.0195503416
0.0879765415,0.0000000000,0.0586510229,0.0097751703
0.0879765415,0.0000000000,0.0586510229,0.0097751703
0.1075268864,0.0000000000,0.0684261989,0.0195503416
0.0977517032,0.0000000000,0.0684261989,0.0097751703
0.0879765415,0.0000000000,0.0684261989,0.0097751703
0.0684261989,0.0000000000,0.0684261989,0.0000000000
0.0684261989,0.0000000000,0.0684261989,0.0097751703
0.0586510229,0.0000000000,0.0586510229,0.0000000000
0.0586510229,0.0000000000,0.0488758516,0.0000000000
0.0488758516,0.0000000000,0.0488758516,0.0000000000
0.0391006832,0.0000000000,0.0586510229,0.0000000000
0.0391006832,0.0000000000,0.0586510229,0.0000000000
0.0293255119,0.0000000000,0.0586510229,0.0097751703
0.0293255119,0.0000000000,0.0684261989,0.0000000000
0.0293255119,0.0000000000,0.0684261989,0.0097751703
0.0195503416,0.0000000000,0.0586510229,0.0000000000
0.0195503416,0.0000000000,0.0586510229,0.0097751703
0.0195503416,0.0000000000,0.0586510229,0.0097751703
0.0097751703,0.0000000000,0.0586510229,0.0097751703
0.0097751703,0.0000000000,0.0586510229,0.0195503416
0.0097751703,0.0000000000,0.0586510229,0.0293255119
0.0097751703,0.0000000000,0.0586510229,0.0293255119
0.0097751703,0.0000000000,0.0586510229,0.0293255119
0.0097751703,0.0000000000,0.0586510229,0.0195503416
0.0097751703,0.0000000000,0.0586510229,0.0195503416
0.0097751703,0.0000000000,0.0684261989,0.0195503416
0.0097751703,0.0000000000,0.0586510229,0.0097751703
0.0097751703,0.0000000000,0.0586510229,0.0097751703
0.0097751703,0.0000000000,0.0782013654,0.0097751703
0.0586510229,0.0000000000,0.0684261989,0.0097751703
0.0684261989,0.0000000000,0.0684261989,0.0097751703
0.0586510229,0.0000000000,0.0586510229,0.0097751703
0.0488758516,0.0000000000,0.0586510229,0.0097751703
0.0488758516,0.0000000000,0.0586510229,0.0097751703
0.0391006832,0.0000000000,0.0488758516,0.0488758516
0.0293255119,0.0000000000,0.0488758516,0.0586510229
0.0195503416,0.0000000000,0.0488758516,0.0488758516
0.0293255119,0.0000000000,0.0488758516,0.0391006832
0.0195503416,0.0000000000,0.0488758516,0.0391006832
0.0195503416,0.0000000000,0.0391006832,0.0293255119
0.0195503416,0.0000000000,0.0391006832,0.0195503416
0.0097751703,0.0000000000,0.0488758516,0.0195503416
0.0195503416,0.0000000000,0.0488758516,0.0097751703
0.0195503416,0.0000000000,0.0391006832,0.0097751703
0.0293255119,0.0000000000,0.0488758516,0.0195503416
0.0293255119,0.0000000000,0.0488758516,0.0097751703
0.0195503416,0.0000000000,0.0586510229,0.0097751703
0.0293255119,0.0000000000,0.0488758516,0.0097751703
0.0195503416,0.0000000000,0.0586510229,0.0097751703
0.0097751703,0.0000000000,0.0586510229,0.0000000000
0.0195503416,0.0000000000,0.0684261989,0.0000000000
0.0195503416,0.0000000000,0.0684261989,0.0097751703
0.0195503416,0.0000000000,0.0782013654,0.0000000000
0.0195503416,0.0000000000,0.0782013654,0.0097751703
0.0195503416,0.0000000000,0.0879765415,0.0000000000
0.0195503416,0.0000000000,0.0782013654,0.0000000000
0.0195503416,0.0000000000,0.0684261989,0.0000000000
0.0195503416,0.0000000000,0.0879765415,0.0000000000
0.0195503416,0.0000000000,0.0684261989,0.0000000000
0.0097751703,0.0000000000,0.0782013654,0.0097751703
0.0195503416,0.0000000000,0.0782013654,0.0000000000
0.0195503416,0.0000000000,0.0684261989,0.0000000000
0.0195503416,0.0000000000,0.0782013654,0.0000000000
0.0195503416,0.0000000000,0.0684261989,0.0097751703
0.0195503416,0.0000000000,0.0684261989,0.0097751703
0.0195503416,0.0000000000,0.0586510229,0.0097751703
0.0293255119,0.0000000000,0.0586510229,0.0097751703
0.0293255119,0.0000000000,0.0684261989,0.0097751703
0.0293255119,0.0000000000,0.0684261989,0.0097751703
0.0293255119,0.0000000000,0.0684261989,0.0097751703
0.0195503416,0.0000000000,0.0684261989,0.0097751703
0.0195503416,0.0000000000,0.0684261989,0.0097751703
0.0195503416,0.0000000000,0.0684261989,0.0097751703
0.0195503416,0.0000000000,0.0782013654,0.0195503416
0.0195503416,0.0000000000,0.0782013654,0.0097751703
0.0195503416,0.0000000000,0.0684261989,0.0097751703
0.0195503416,0.0000000000,0.0586510229,0.0097751703
0.0097751703,0.0000000000,0.0586510229,0.0097751703
0.0097751703,0.0000000000,0.0586510229,0.0097751703
0.0097751703,0.0000000000,0.0586510229,0.0097751703
0.0097751703,0.0000000000,0.0586510229,0.0097751703
0.0195503416,0.0000000000,0.0586510229,0.0097751703
0.0195503416,0.0000000000,0.0684261989,0.0000000000
0.0097751703,0.0000000000,0.0782013654,0.0000000000
0.0097751703,0.0000000000,0.0879765415,0.0000000000
0.0097751703,0.0000000000,0.0977517032,0.0097751703
0.0097751703,0.0000000000,0.0782013654,0.0000000000
0.0097751703,0.0000000000,0.0879765415,0.0097751703
0.0097751703,0.0000000000,0.1075268864,0.0097751703
0.0097751703,0.0000000000,0.1173020482,0.0097751703
0.0195503416,0.0000000000,0.1075268864,0.0097751703
0.0195503416,0.0000000000,0.1173020482,0.0097751703
0.0195503416,0.0000000000,0.1075268864,0.0097751703
0.0195503416,0.0000000000,0.1173020482,0.0097751703
0.0097751703,0.0000000000,0.1173020482,0.0195503416
0.0195503416,0.0000000000,0.1270772218,0.0195503416
0.0097751703,0.0000000000,0.1173020482,0.0195503416
0.0097751703,0.0000000000,0.1173020482,0.0195503416
0.0097751703,0.0000000000,0.1173020482,0.0195503416
0.0195503416,0.0000000000,0.1270772218,0.0195503416
0.0195503416,0.0000000000,0.1075268864,0.0195503416
0.0195503416,0.0000000000,0.1466275596,0.0195503416
0.0195503416,0.0000000000,0.1564027309,0.0195503416
0.0195503416,0.0000000000,0.1466275596,0.0293255119
0.0195503416,0.0000000000,0.1564027309,0.0391006832
0.0195503416,0.0000000000,0.1564027309,0.0488758516
0.0097751703,0.0000000000,0.1466275596,0.0586510229
0.0097751703,0.0000000000,0.1368523955,0.0586510229
0.0097751703,0.0000000000,0.1173020482,0.0782013654
0.0097751703,0.0000000000,0.1075268864,0.0782013654
0.0097751703,0.0000000000,0.0977517032,0.0782013654
0.0097751703,0.0000000000,0.1075268864,0.0684261989
0.0097751703,0.0000000000,0.1075268864,0.0684261989
0.0097751703,0.0000000000,0.0977517032,0.0684261989
0.0000000000,0.0000000000,0.0977517032,0.0684261989
0.0097751703,0.0000000000,0.0977517032,0.0684261989
0.0097751703,0.0000000000,0.1075268864,0.0782013654
0.0097751703,0.0000000000,0.1075268864,0.0782013654
0.0097751703,0.0000000000,0.1075268864,0.0879765415
0.0097751703,0.0000000000,0.1075268864,0.0977517032
0.0097751703,0.0000000000,0.1075268864,0.0977517032
0.0000000000,0.0000000000,0.1075268864,0.0977517032
0.0000000000,0.0000000000,0.1173020482,0.0879765415
0.0097751703,0.0000000000,0.1173020482,0.0879765415
0.0097751703,0.0000000000,0.1075268864,0.0879765415
0.0000000000,0.0000000000,0.0879765415,0.0977517032
0.0000000000,0.0000000000,0.0879765415,0.0782013654
0.0000000000,0.0000000000,0.0977517032,0.0977517032
0.0000000000,0.0000000000,0.0879765415,0.0977517032
0.0097751703,0.0000000000,0.0879765415,0.0879765415
0.0097751703,0.0000000000,0.0879765415,0.1075268864
0.0097751703,0.0000000000,0.0879765415,0.0977517032
0.0293255119,0.0391006832,0.0097751703,0.0977517032
0.8699902534,1.6422286987,3.0694036483,0.8797654151
0.6744868278,1.2903225421,2.4242424964,0.7233626842
0.5376344203,1.0068426132,1.9159335136,0.5962854385
0.4594330310,0.7917888641,1.5249266624,0.4887585639
0.3910068321,0.6158357620,1.2121212482,0.4007820129
0.3225806236,0.4887585639,0.9579667091,0.3225806236
0.2639296054,0.3812316703,0.7722384929,0.2737047910
0.2052785873,0.2932551193,0.6158357620,0.2248289346
0.1564027309,0.2346040964,0.4887585639,0.1857282543
0.1368523955,0.1857282543,0.4007820129,0.1564027309
0.0977517032,0.1466275596,0.3421309947,0.1368523955
0.0879765415,0.1075268864,0.2834799575,0.1075268864
0.0684261989,0.0782013654,0.2443792819,0.0977517032
0.0488758516,0.0684261989,0.2052785873,0.0782013654
0.0391006832,0.0488758516,0.1759530782,0.0586510229
0.0293255119,0.0391006832,0.1466275596,0.0488758516
0.0293255119,0.0293255119,0.1368523955,0.0488758516
0.0195503416,0.0195503416,0.1173020482,0.0293255119
0.0097751703,0.0097751703,0.1075268864,0.0293255119
0.0293255119,0.0097751703,0.1075268864,0.0195503416
0.0391006832,0.0000000000,0.0977517032,0.0195503416
0.0391006832,0.0000000000,0.1075268864,0.0195503416
0.0391006832,0.0000000000,0.0977517032,0.0097751703
0.0391006832,0.0000000000,0.0977517032,0.0097751703
0.0293255119,0.0000000000,0.0879765415,0.0097751703
0.0293255119,0.0000000000,0.1075268864,0.0097751703
0.0391006832,0.0000000000,0.0977517032,0.0097751703
0.0391006832,0.0000000000,0.1075268864,0.0000000000
0.0293255119,0.0000000000,0.0977517032,0.0000000000
0.0391006832,0.0000000000,0.0977517032,0.0000000000
0.0293255119,0.0000000000,0.0977517032,0.0097751703
0.0293255119,0.0000000000,0.0977517032,0.0195503416
0.0391006832,0.0000000000,0.0879765415,0.0293255119
0.0391006832,0.0000000000,0.0879765415,0.0293255119
0.0293255119,0.0000000000,0.0782013654,0.0293255119
0.0293255119,0.0000000000,0.0879765415,0.0195503416
0.0293255119,0.0000000000,0.0782013654,0.0195503416
0.0293255119,0.0000000000,0.0782013654,0.0195503416
0.0293255119,0.0000000000,0.0782013654,0.0097751703
0.0391006832,0.0000000000,0.0879765415,0.0097751703
0.0293255119,0.0000000000,0.0782013654,0.0097751703
0.0586510229,0.0000000000,0.0782013654,0.0097751703
0.0488758516,0.0000000000,0.0977517032,0.0097751703
0.0391006832,0.0000000000,0.0977517032,0.0097751703
0.0391006832,0.0000000000,0.0977517032,0.0097751703
0.0293255119,0.0000000000,0.0977517032,0.0000000000
0.0293255119,0.0000000000,0.1075268864,0.0000000000
0.0293255119,0.0000000000,0.1075268864,0.0097751703
0.0293255119,0.0000000000,0.1173020482,0.0097751703
0.0195503416,0.0000000000,0.1075268864,0.0097751703
0.0195503416,0.0000000000,0.0977517032,0.0000000000
0.0097751703,0.0000000000,0.0977517032,0.0000000000
0.0097751703,0.0000000000,0.0977517032,0.0000000000
0.0097751703,0.0000000000,0.0879765415,0.0000000000
0.0097751703,0.0000000000,0.0879765415,0.0000000000
0.0195503416,0.0000000000,0.0879765415,0.0000000000
0.0097751703,0.0000000000,0.0782013654,0.0000000000
0.0097751703,0.0000000000,0.0977517032,0.0000000000
0.0097751703,0.0000000000,0.0879765415,0.0000000000
0.0097751703,0.0000000000,0.0879765415,0.0097751703
0.0097751703,0.0000000000,0.0977517032,0.0000000000
0.0097751703,0.0000000000,0.0977517032,0.0000000000
0.0097751703,0.0000000000,0.0977517032,0.0000000000
0.0097751703,0.0000000000,0.1075268864,0.0000000000
0.0097751703,0.0000000000,0.0977517032,0.0000000000
0.0097751703,0.0000000000,0.0977517032,0.0000000000
0.0097751703,0.0000000000,0.0879765415,0.0000000000
0.0097751703,0.0000000000,0.0782013654,0.0000000000
0.0097751703,0.0000000000,0.0782013654,0.0000000000
0.0195503416,0.0000000000,0.0879765415,0.0000000000
0.0293255119,0.0000000000,0.0977517032,0.0000000000
0.0293255119,0.0000000000,0.0782013654,0.0000000000
0.0293255119,0.0000000000,0.0879765415,0.0000000000
0.0293255119,0.0000000000,0.0684261989,0.0000000000
0.0293255119,0.0000000000,0.0684261989,0.0000000000
0.0293255119,0.0000000000,0.0684261989,0.0000000000
0.0195503416,0.0000000000,0.0782013654,0.0000000000
0.0195503416,0.0000000000,0.0684261989,0.0097751703
0.0195503416,0.0000000000,0.0782013654,0.0195503416
0.0195503416,0.0000000000,0.0782013654,0.0293255119
0.0293255119,0.0000000000,0.0782013654,0.0391006832
0.0293255119,0.0000000000,0.0782013654,0.0391006832
0.0293255119,0.0000000000,0.0782013654,0.0293255119
0.0293255119,0.0000000000,0.0684261989,0.0195503416
0.0293255119,0.0000000000,0.0684261989,0.0195503416
0.0293255119,0.0000000000,0.0684261989,0.0195503416
0.0293255119,0.0000000000,0.0684261989,0.0195503416
0.0293255119,0.0000000000,0.0684261989,0.0195503416
0.0391006832,0.0000000000,0.0684261989,0.0097751703
0.0391006832,0.0000000000,0.0684261989,0.0097751703
0.0488758516,0.0000000000,0.0782013654,0.0195503416
0.0488758516,0.0000000000,0.0684261989,0.0195503416
0.0488758516,0.0000000000,0.0586510229,0.0195503416
0.0586510229,0.0000000000,0.0586510229,0.0097751703
0.0488758516,0.0000000000,0.0586510229,0.0097751703
0.0586510229,0.0000000000,0.0488758516,0.0195503416
0.0684261989,0.0000000000,0.0586510229,0.0195503416
0.0684261989,0.0000000000,0.0586510229,0.0195503416
0.0586510229,0.0000000000,0.0488758516,0.0097751703
0.0488758516,0.0000000000,0.0488758516,0.0097751703
0.0488758516,0.0000000000,0.0782013654,0.0097751703
0.0391006832,0.0000000000,0.0782013654,0.0195503416
0.0488758516,0.0000000000,0.0782013654,0.0195503416
0.0586510229,0.0000000000,0.0586510229,0.0097751703
0.0684261989,0.0000000000,0.0684261989,0.0097751703
0.0586510229,0.0000000000,0.0684261989,0.0195503416
0.0586510229,0.0000000000,0.0684261989,0.0195503416
0.0684261989,0.0000000000,0.0586510229,0.0195503416
0.0684261989,0.0000000000,0.0586510229,0.0195503416
0.0684261989,0.0000000000,0.0684261989,0.0293255119
0.0684261989,0.0000000000,0.0488758516,0.0293255119
0.0684261989,0.0000000000,0.0488758516,0.0293255119
0.0782013654,0.0000000000,0.0488758516,0.0195503416
0.0782013654,0.0000000000,0.0488758516,0.0097751703
0.0684261989,0.0000000000,0.0488758516,0.0097751703
0.0684261989,0.0000000000,0.0488758516,0.0000000000
0.0977517032,0.0000000000,0.0488758516,0.0097751703
0.1368523955,0.0000000000,0.0391006832,0.0000000000
0.1173020482,0.0000000000,0.0391006832,0.0000000000
0.1075268864,0.0000000000,0.0586510229,0.0000000000
0.0977517032,0.0000000000,0.0586510229,0.0000000000
0.0879765415,0.0000000000,0.0684261989,0.0000000000
0.0879765415,0.0000000000,0.0586510229,0.0000000000
0.1075268864,0.0000000000,0.0586510229,0.0000000000
0.1075268864,0.0000000000,0.0586510229,0.0000000000
0.0977517032,0.0000000000,0.0488758516,0.0000000000
0.0782013654,0.0000000000,0.0488758516,0.0000000000
0.0684261989,0.0000000000,0.0586510229,0.0000000000
0.0684261989,0.0000000000,0.0586510229,0.0000000000
0.0586510229,0.0000000000,0.0586510229,0.0000000000
0.0488758516,0.0000000000,0.0586510229,0.0000000000
0.0488758516,0.0000000000,0.0684261989,0.0000000000
0.0391006832,0.0000000000,0.0586510229,0.0000000000
0.0293255119,0.0000000000,0.0684261989,0.0000000000
0.0293255119,0.0000000000,0.0586510229,0.0000000000
0.0293255119,0.0000000000,0.0488758516,0.0000000000
0.0293255119,0.0000000000,0.0488758516,0.0000000000
0.0293255119,0.0000000000,0.0488758516,0.0000000000
0.0195503416,0.0000000000,0.0488758516,0.0000000000
0.0195503416,0.0000000000,0.0586510229,0.0000000000
0.0195503416,0.0000000000,0.0488758516,0.0000000000
0.0195503416,0.0000000000,0.0586510229,0.0000000000
0.0195503416,0.0000000000,0.0586510229,0.0097751703
0.0195503416,0.0000000000,0.0586510229,0.0097751703
0.0195503416,0.0000000000,0.0488758516,0.0097751703
0.0195503416,0.0000000000,0.0391006832,0.0097751703
0.0097751703,0.0000000000,0.0391006832,0.0097751703
0.0097751703,0.0000000000,0.0391006832,0.0097751703
0.0195503416,0.0000000000,0.0488758516,0.0097751703
0.0293255119,0.0000000000,0.0391006832,0.0097751703
0.0391006832,0.0000000000,0.0391006832,0.0097751703
0.0293255119,0.0000000000,0.0488758516,0.0195503416
0.0391006832,0.0000000000,0.0488758516,0.0195503416
0.0391006832,0.0000000000,0.0488758516,0.0195503416
0.0293255119,0.0000000000,0.0586510229,0.0293255119
0.0195503416,0.0000000000,0.0586510229,0.0293255119
0.0195503416,0.0000000000,0.0586510229,0.0488758516
0.0195503416,0.0000000000,0.0488758516,0.0391006832
0.0195503416,0.0000000000,0.0586510229,0.0488758516
0.0195503416,0.0000000000,0.0586510229,0.0488758516
0.0195503416,0.0000000000,0.0586510229,0.0488758516
0.0097751703,0.0000000000,0.0684261989,0.0586510229
0.0097751703,0.0000000000,0.0684261989,0.0586510229
0.0684261989,0.0000000000,0.0782013654,0.0586510229
0.1075268864,0.0000000000,0.0684261989,0.0586510229
0.1075268864,0.0000000000,0.0684261989,0.0684261989
0.0782013654,0.0000000000,0.0684261989,0.0684261989
0.0586510229,0.0000000000,0.0684261989,0.0684261989
0.0586510229,0.0000000000,0.0586510229,0.0684261989
0.0586510229,0.0000000000,0.0586510229,0.0684261989
0.0586510229,0.0000000000,0.0488758516,0.0684261989
0.0488758516,0.0000000000,0.0488758516,0.0782013654
0.0586510229,0.0000000000,0.0488758516,0.0977517032
0.0586510229,0.0000000000,0.0488758516,0.1075268864
0.0488758516,0.0000000000,0.0488758516,0.0977517032
0.0488758516,0.0000000000,0.0488758516,0.0977517032
0.0488758516,0.0000000000,0.0488758516,0.0879765415
0.0391006832,0.0000000000,0.0488758516,0.0782013654
0.0391006832,0.0000000000,0.0586510229,0.0782013654
0.0391006832,0.0000000000,0.0586510229,0.0684261989
0.0391006832,0.0000000000,0.0586510229,0.0684261989
0.0293255119,0.0000000000,0.0586510229,0.0586510229
0.0293255119,0.0000000000,0.0684261989,0.0586510229
0.0293255119,0.0000000000,0.0586510229,0.0586510229
0.0293255119,0.0000000000,0.0586510229,0.0586510229
0.0391006832,0.0000000000,0.0586510229,0.0586510229
0.0293255119,0.0000000000,0.0488758516,0.0586510229
0.0391006832,0.0000000000,0.0488758516,0.0488758516
0.0293255119,0.0000000000,0.0391006832,0.0391006832
0.0293255119,0.0000000000,0.0488758516,0.0488758516
0.0293255119,0.0000000000,0.0488758516,0.0586510229
0.0293255119,0.0000000000,0.0488758516,0.0391006832
0.0391006832,0.0000000000,0.0488758516,0.0391006832
0.0391006832,0.0000000000,0.0488758516,0.0293255119
0.0391006832,0.0000000000,0.0586510229,0.0293255119
0.0293255119,0.0000000000,0.0586510229,0.0293255119
0.0195503416,0.0000000000,0.0586510229,0.0293255119
0.0195503416,0.0000000000,0.0586510229,0.0293255119
0.0195503416,0.0000000000,0.0586510229,0.0293255119
0.0391006832,0.0000000000,0.0586510229,0.0391006832
0.0391006832,0.0000000000,0.0586510229,0.0293255119
0.0293255119,0.0000000000,0.0684261989,0.0293255119
0.0293255119,0.0000000000,0.0684261989,0.0293255119
0.0293255119,0.0000000000,0.0684261989,0.0293255119
0.0293255119,0.0000000000,0.0684261989,0.0195503416
0.0293255119,0.0000000000,0.0684261989,0.0195503416
0.0293255119,0.0000000000,0.0684261989,0.0195503416
0.0293255119,0.0000000000,0.0782013654,0.0293255119
0.0293255119,0.0000000000,0.0782013654,0.0293255119
0.0293255119,0.0000000000,0.0879765415,0.0293255119
0.0293255119,0.0000000000,0.0782013654,0.0195503416
0.0293255119,0.0000000000,0.0782013654,0.0195503416
0.0293255119,0.0000000000,0.0684261989,0.0195503416
0.0391006832,0.0000000000,0.0586510229,0.0097751703
0.0293255119,0.0000000000,0.0684261989,0.0195503416
0.0391006832,0.0000000000,0.0782013654,0.0097751703
0.0293255119,0.0000000000,0.0782013654,0.0097751703
0.0293255119,0.0000000000,0.0782013654,0.0097751703
0.0293255119,0.0000000000,0.0782013654,0.0097751703
0.0391006832,0.0000000000,0.1075268864,0.0000000000
0.0391006832,0.0000000000,0.1075268864,0.0000000000
0.0391006832,0.0000000000,0.1173020482,0.0000000000
0.0391006832,0.0000000000,0.1173020482,0.0000000000
0.0293255119,0.0000000000,0.1075268864,0.0000000000
0.0195503416,0.0000000000,0.0977517032,0.0000000000
0.0195503416,0.0000000000,0.0879765415,0.0000000000
0.0097751703,0.0000000000,0.0977517032,0.0000000000
0.0097751703,0.0000000000,0.0879765415,0.0000000000
0.0097751703,0.0000000000,0.0782013654,0.0000000000
0.0097751703,0.0000000000,0.0684261989,0.0000000000
0.0000000000,0.0000000000,0.0684261989,0.0000000000
0.0000000000,0.0000000000,0.0684261989,0.0195503416
0.0000000000,0.0000000000,0.0684261989,0.0293255119
0.0000000000,0.0000000000,0.0684261989,0.0293255119
0.0000000000,0.0000000000,0.0684261989,0.0293255119
0.0000000000,0.0000000000,0.0684261989,0.0293255119
0.0000000000,0.0000000000,0.0684261989,0.0195503416
0.0097751703,0.0000000000,0.0684261989,0.0195503416
0.0195503416,0.0000000000,0.0684261989,0.0097751703
0.0195503416,0.0000000000,0.0684261989,0.0097751703
0.0195503416,0.0000000000,0.0684261989,0.0097751703
0.0488758516,0.0000000000,0.0586510229,0.0097751703
0.0488758516,0.0000000000,0.0488758516,0.0097751703
0.0488758516,0.0000000000,0.0586510229,0.0000000000
0.0488758516,0.0000000000,0.0684261989,0.0000000000
0.0586510229,0.0000000000,0.0684261989,0.0000000000
0.0684261989,0.0000000000,0.0684261989,0.0000000000
0.0586510229,0.0000000000,0.0684261989,0.0097751703
0.0586510229,0.0000000000,0.0684261989,0.0000000000
0.0488758516,0.0000000000,0.0684261989,0.0000000000
0.0488758516,0.0000000000,0.0782013654,0.0000000000
0.0488758516,0.0000000000,0.0684261989,0.0000000000
0.0586510229,0.0000000000,0.0782013654,0.0000000000
0.0488758516,0.0000000000,0.0879765415,0.0000000000
0.0488758516,0.0000000000,0.0879765415,0.0000000000
0.0488758516,0.0000000000,0.0879765415,0.0000000000
0.0488758516,0.0000000000,0.0684261989,0.0195503416
0.0488758516,0.0000000000,0.0586510229,0.0097751703
0.0782013654,0.0000000000,0.0488758516,0.0097751703
0.0684261989,0.0000000000,0.0488758516,0.0000000000
0.0684261989,0.0000000000,0.0488758516,0.0097751703
0.0684261989,0.0000000000,0.0488758516,0.0000000000
0.0782013654,0.0000000000,0.0488758516,0.0000000000
0.0782013654,0.0000000000,0.0391006832,0.0000000000
0.0879765415,0.0000000000,0.0391006832,0.0000000000
0.0977517032,0.0000000000,0.0488758516,0.0000000000
0.0879765415,0.0000000000,0.0488758516,0.0000000000
0.0782013654,0.0000000000,0.0488758516,0.0000000000
0.0879765415,0.0000000000,0.0684261989,0.0000000000
0.0879765415,0.0000000000,0.0684261989,0.0000000000
0.0879765415,0.0000000000,0.0684261989,0.0000000000
0.0782013654,0.0000000000,0.0684261989,0.0000000000
0.0879765415,0.0000000000,0.0879765415,0.0000000000
0.0879765415,0.0000000000,0.0782013654,0.0000000000
0.1075268864,0.0000000000,0.0782013654,0.0000000000
0.1173020482,0.0000000000,0.0782013654,0.0000000000
0.1075268864,0.0000000000,0.0684261989,0.0000000000
0.1075268864,0.0000000000,0.0586510229,0.0000000000
0.0879765415,0.0000000000,0.0586510229,0.0391006832
0.0879765415,0.0000000000,0.0586510229,0.0391006832
0.1075268864,0.0000000000,0.0586510229,0.0391006832
0.0977517032,0.0000000000,0.0586510229,0.0391006832
0.0977517032,0.0000000000,0.0586510229,0.0293255119
0.0879765415,0.0000000000,0.0488758516,0.0391006832
0.0782013654,0.0000000000,0.0488758516,0.0586510229
0.0782013654,0.0000000000,0.0488758516,0.0586510229
0.0684261989,0.0000000000,0.0488758516,0.0488758516
0.0684261989,0.0000000000,0.0488758516,0.0488758516
0.0684261989,0.0000000000,0.0488758516,0.0391006832
0.0586510229,0.0000000000,0.0488758516,0.0293255119
0.0488758516,0.0000000000,0.0586510229,0.0195503416
0.0488758516,0.0000000000,0.0684261989,0.0195503416
0.0488758516,0.0000000000,0.0586510229,0.0195503416
0.0488758516,0.0000000000,0.0586510229,0.0195503416
0.0391006832,0.0000000000,0.0684261989,0.0293255119
0.0293255119,0.0000000000,0.0586510229,0.0293255119
0.0293255119,0.0000000000,0.0586510229,0.0293255119
0.0293255119,0.0000000000,0.0586510229,0.0195503416
0.0195503416,0.0000000000,0.0684261989,0.0195503416
0.0195503416,0.0000000000,0.0684261989,0.0097751703
0.0195503416,0.0000000000,0.0684261989,0.0097751703
0.0195503416,0.0000000000,0.0586510229,0.0195503416
0.0195503416,0.0000000000,0.0684261989,0.0195503416
0.0097751703,0.0000000000,0.0684261989,0.0097751703
0.0097751703,0.0000000000,0.0684261989,0.0097751703
0.0097751703,0.0000000000,0.0684261989,0.0195503416
0.0195503416,0.0000000000,0.0684261989,0.0097751703
0.0097751703,0.0000000000,0.0586510229,0.0097751703
0.0097751703,0.0000000000,0.0586510229,0.0097751703
0.0097751703,0.0000000000,0.0488758516,0.0195503416
0.0097751703,0.0000000000,0.0586510229,0.0195503416
0.0000000000,0.0000000000,0.0586510229,0.0195503416
0.0000000000,0.0000000000,0.0488758516,0.0195503416
0.0000000000,0.0000000000,0.0488758516,0.0195503416
0.0000000000,0.0000000000,0.0391006832,0.0195503416
0.0000000000,0.0000000000,0.0488758516,0.0097751703
0.0000000000,0.0000000000,0.0488758516,0.0097751703
0.0000000000,0.0000000000,0.0488758516,0.0097751703
0.0000000000,0.0000000000,0.0391006832,0.0097751703
0.0097751703,0.0000000000,0.0391006832,0.0097751703
0.0097751703,0.0000000000,0.0293255119,0.0097751703
0.0097751703,0.0000000000,0.0488758516,0.0097751703
0.0293255119,0.0000000000,0.0391006832,0.0000000000
0.0488758516,0.0097751703,0.0488758516,0.0000000000
0.0391006832,0.0097751703,0.0391006832,0.0000000000
0.0293255119,0.0097751703,0.0586510229,0.0000000000
0.0293255119,0.0097751703,0.0586510229,0.0000000000
0.0195503416,0.0097751703,0.0488758516,0.0000000000
0.0195503416,0.0000000000,0.0488758516,0.0000000000
0.0195503416,0.0000000000,0.0488758516,0.0000000000
0.0097751703,0.0000000000,0.0488758516,0.0000000000
0.0195503416,0.0000000000,0.0488758516,0.0000000000
0.0097751703,0.0000000000,0.0488758516,0.0000000000
0.0195503416,0.0000000000,0.0488758516,0.0000000000
0.0097751703,0.0000000000,0.0488758516,0.0000000000
0.0391006832,0.0000000000,0.0391006832,0.0000000000
0.0488758516,0.0000000000,0.0391006832,0.0000000000
0.0391006832,0.0000000000,0.0391006832,0.0097751703
0.0293255119,0.0000000000,0.0488758516,0.0391006832
0.0293255119,0.0000000000,0.0391006832,0.0586510229
0.0391006832,0.0000000000,0.0488758516,0.0684261989
0.0391006832,0.0000000000,0.0488758516,0.0684261989
0.0391006832,0.0000000000,0.0488758516,0.0586510229
0.0293255119,0.0000000000,0.0488758516,0.0586510229
0.0293255119,0.0000000000,0.0488758516,0.0488758516
0.0488758516,0.0000000000,0.0488758516,0.0488758516
0.0391006832,0.0000000000,0.0488758516,0.0488758516
0.0293255119,0.0000000000,0.0488758516,0.0488758516
0.0293255119,0.0000000000,0.0488758516,0.0488758516
0.0293255119,0.0000000000,0.0488758516,0.0488758516
0.0293255119,0.0000000000,0.0488758516,0.0391006832
0.0293255119,0.0000000000,0.0488758516,0.0391006832
0.0293255119,0.0000000000,0.0488758516,0.0391006832
0.0293255119,0.0000000000,0.0586510229,0.0391006832
0.0195503416,0.0000000000,0.0488758516,0.0391006832
0.0293255119,0.0000000000,0.0586510229,0.0488758516
0.0195503416,0.0000000000,0.0684261989,0.0488758516
0.0195503416,0.0000000000,0.0586510229,0.0586510229
0.0195503416,0.0000000000,0.0586510229,0.0488758516
0.0195503416,0.0000000000,0.0488758516,0.0391006832
0.0293255119,0.0000000000,0.0586510229,0.0391006832
0.0293255119,0.0000000000,0.0586510229,0.0488758516
0.0293255119,0.0000000000,0.0684261989,0.0488758516
0.0293255119,0.0000000000,0.0684261989,0.0488758516
0.0293255119,0.0000000000,0.0684261989,0.0488758516
0.0293255119,0.0000000000,0.0586510229,0.0488758516
0.0195503416,0.0000000000,0.0586510229,0.0586510229
0.0293255119,0.0000000000,0.0586510229,0.1270772218
0.0293255119,0.0000000000,0.0488758516,0.1075268864
0.0293255119,0.0000000000,0.0586510229,0.1075268864
0.0391006832,0.0000000000,0.0684261989,0.1270772218
0.0391006832,0.0000000000,0.0586510229,0.1075268864
0.0293255119,0.0000000000,0.0684261989,0.1075268864
0.0293255119,0.0000000000,0.0684261989,0.1075268864
0.0293255119,0.0000000000,0.0586510229,0.0879765415
0.0293255119,0.0000000000,0.0684261989,0.0879765415
0.0293255119,0.0000000000,0.0782013654,0.0684261989
0.0293255119,0.0000000000,0.0684261989,0.0684261989
0.0293255119,0.0000000000,0.0684261989,0.0782013654
0.0391006832,0.0000000000,0.0684261989,0.0782013654
0.0488758516,0.0000000000,0.0684261989,0.0684261989
0.0488758516,0.0000000000,0.0684261989,0.0684261989
0.0586510229,0.0000000000,0.0782013654,0.0684261989
0.0586510229,0.0000000000,0.0782013654,0.0488758516
0.0684261989,0.0000000000,0.0782013654,0.0488758516
0.0684261989,0.0000000000,0.0684261989,0.0391006832
0.0586510229,0.0000000000,0.0782013654,0.0293255119
0.0586510229,0.0000000000,0.0879765415,0.0293255119
0.0391006832,0.0000000000,0.0782013654,0.0391006832
0.0391006832,0.0000000000,0.0879765415,0.0391006832
0.0293255119,0.0000000000,0.0879765415,0.0293255119
0.0293255119,0.0000000000,0.1075268864,0.0391006832
0.0195503416,0.0000000000,0.1075268864,0.0391006832
0.0097751703,0.0000000000,0.1075268864,0.0391006832
0.0195503416,0.0000000000,0.0977517032,0.0293255119
0.0097751703,0.0000000000,0.0977517032,0.0293255119
0.0195503416,0.0000000000,0.0977517032,0.0293255119
0.0293255119,0.0000000000,0.0977517032,0.0195503416
0.0293255119,0.0000000000,0.0977517032,0.0195503416
0.0391006832,0.0000000000,0.0879765415,0.0195503416
0.0293255119,0.0000000000,0.1075268864,0.0195503416
0.0391006832,0.0000000000,0.1075268864,0.0195503416
0.0391006832,0.0000000000,0.0879765415,0.0195503416
0.0391006832,0.0000000000,0.0879765415,0.0097751703
0.0488758516,0.0000000000,0.0782013654,0.0097751703
0.0488758516,0.0000000000,0.0879765415,0.0097751703
0.0488758516,0.0000000000,0.0977517032,0.0097751703
0.0488758516,0.0000000000,0.0977517032,0.0000000000
0.0586510229,0.0000000000,0.0977517032,0.0000000000
0.0586510229,0.0000000000,0.0977517032,0.0000000000
0.0586510229,0.0000000000,0.0977517032,0.0000000000
0.0488758516,0.0000000000,0.0977517032,0.0000000000
0.0684261989,0.0000000000,0.0879765415,0.0000000000
0.0684261989,0.0000000000,0.0879765415,0.0000000000
0.0684261989,0.0000000000,0.0782013654,0.0000000000
0.0684261989,0.0000000000,0.0782013654,0.0000000000
0.0879765415,0.0000000000,0.0684261989,0.0000000000
0.0977517032,0.0000000000,0.0684261989,0.0000000000
0.1075268864,0.0000000000,0.0586510229,0.0000000000
0.0977517032,0.0000000000,0.0391006832,0.0000000000
0.1075268864,0.0000000000,0.0391006832,0.0000000000
0.0977517032,0.0000000000,0.0391006832,0.0000000000
0.0977517032,0.0000000000,0.0586510229,0.0000000000
0.1270772218,0.0000000000,0.0586510229,0.0000000000
0.1564027309,0.0000000000,0.0488758516,0.0195503416
0.1466275596,0.0000000000,0.0586510229,0.0195503416
0.1368523955,0.0000000000,0.0488758516,0.0195503416
0.1270772218,0.0000000000,0.0488758516,0.0293255119
0.1270772218,0.0000000000,0.0488758516,0.0293255119
0.1173020482,0.0000000000,0.0586510229,0.0293255119
0.1270772218,0.0000000000,0.0488758516,0.0195503416
0.1173020482,0.0000000000,0.0488758516,0.0293255119
0.1075268864,0.0000000000,0.0391006832,0.0293255119
0.1270772218,0.0000000000,0.0488758516,0.0195503416
0.1857282543,0.0000000000,0.0391006832,0.0195503416
0.1759530782,0.0000000000,0.0391006832,0.0195503416
0.1564027309,0.0000000000,0.0391006832,0.0195503416
0.1270772218,0.0000000000,0.0391006832,0.0195503416
0.1173020482,0.0000000000,0.0293255119,0.0195503416
0.1075268864,0.0000000000,0.0293255119,0.0097751703
0.1075268864,0.0000000000,0.0293255119,0.0097751703
0.1075268864,0.0000000000,0.0293255119,0.0097751703
0.0977517032,0.0000000000,0.0293255119,0.0000000000
0.1270772218,0.0000000000,0.0293255119,0.0000000000
0.1368523955,0.0000000000,0.0293255119,0.0000000000
0.1368523955,0.0000000000,0.0293255119,0.0000000000
0.1173020482,0.0000000000,0.0293255119,0.0000000000
0.1075268864,0.0000000000,0.0293255119,0.0000000000
0.0977517032,0.0000000000,0.0391006832,0.0000000000
0.0879765415,0.0000000000,0.0391006832,0.0097751703
0.0879765415,0.0000000000,0.0586510229,0.0097751703
0.1075268864,0.0000000000,0.0488758516,0.0000000000
0.1075268864,0.0000000000,0.0684261989,0.0097751703
0.1075268864,0.0000000000,0.0684261989,0.0000000000
0.1075268864,0.0000000000,0.0684261989,0.0097751703
0.0977517032,0.0000000000,0.0684261989,0.0000000000
0.0782013654,0.0000000000,0.0782013654,0.0000000000
0.0684261989,0.0000000000,0.0684261989,0.0000000000
0.0684261989,0.0000000000,0.0684261989,0.0000000000
0.0586510229,0.0000000000,0.0586510229,0.0000000000
0.0488758516,0.0000000000,0.0586510229,0.0000000000
0.0488758516,0.0000000000,0.0488758516,0.0000000000
0.0391006832,0.0000000000,0.0684261989,0.0000000000
0.0293255119,0.0000000000,0.0586510229,0.0000000000
0.0293255119,0.0000000000,0.0684261989,0.0000000000
0.0293255119,0.0000000000,0.0684261989,0.0000000000
0.0195503416,0.0000000000,0.0684261989,0.0000000000
0.0195503416,0.0000000000,0.0684261989,0.0000000000
0.0097751703,0.0000000000,0.0586510229,0.0000000000
0.0097751703,0.0000000000,0.0586510229,0.0000000000
0.0097751703,0.0000000000,0.0586510229,0.0391006832
0.0097751703,0.0000000000,0.0684261989,0.0391006832
0.0097751703,0.0000000000,0.0586510229,0.0488758516
0.0097751703,0.0000000000,0.0586510229,0.0391006832
0.0000000000,0.0000000000,0.0586510229,0.0488758516
0.0000000000,0.0000000000,0.0488758516,0.0293255119
0.0000000000,0.0000000000,0.0488758516,0.0293255119
0.0000000000,0.0000000000,0.0488758516,0.0293255119
0.0000000000,0.0000000000,0.0488758516,0.0195503416
0.0000000000,0.0000000000,0.0586510229,0.0097751703
0.0000000000,0.0000000000,0.0488758516,0.0195503416
0.0000000000,0.0000000000,0.0488758516,0.0097751703
0.0000000000,0.0000000000,0.0488758516,0.0195503416
0.0097751703,0.0000000000,0.0391006832,0.0195503416
0.0097751703,0.0000000000,0.0391006832,0.0195503416
0.0488758516,0.0097751703,0.0684261989,0.0097751703
0.0879765415,0.0000000000,0.0684261989,0.0097751703
0.0684261989,0.0000000000,0.0586510229,0.0097751703
0.0586510229,0.0000000000,0.0586510229,0.0097751703
0.0488758516,0.0000000000,0.0586510229,0.0097751703
0.0488758516,0.0000000000,0.0586510229,0.0097751703
0.0391006832,0.0000000000,0.0684261989,0.0097751703
0.0586510229,0.0000000000,0.0586510229,0.0000000000
0.0684261989,0.0000000000,0.0586510229,0.0000000000
0.0586510229,0.0000000000,0.0586510229,0.0000000000
0.0488758516,0.0000000000,0.0488758516,0.0000000000
0.0488758516,0.0000000000,0.0488758516,0.0000000000
0.0488758516,0.0000000000,0.0488758516,0.0000000000
0.0391006832,0.0000000000,0.0586510229,0.0000000000
0.0391006832,0.0000000000,0.0586510229,0.0097751703
0.0391006832,0.0000000000,0.0488758516,0.0097751703
0.0391006832,0.0000000000,0.0488758516,0.0097751703
0.0488758516,0.0000000000,0.0488758516,0.0097751703
0.0391006832,0.0000000000,0.0488758516,0.0097751703
0.0293255119,0.0000000000,0.0391006832,0.0195503416
0.0293255119,0.0000000000,0.0391006832,0.0293255119
0.0293255119,0.0000000000,0.0391006832,0.0293255119
0.0293255119,0.0000000000,0.0293255119,0.0293255119
0.0293255119,0.0000000000,0.0293255119,0.0293255119
0.0195503416,0.0000000000,0.0293255119,0.0195503416
0.0195503416,0.0000000000,0.0391006832,0.0195503416
0.0097751703,0.0000000000,0.0391006832,0.0097751703
0.0097751703,0.0000000000,0.0391006832,0.0097751703
0.0097751703,0.0000000000,0.0391006832,0.0097751703
0.0195503416,0.0000000000,0.0391006832,0.0097751703
0.0097751703,0.0000000000,0.0488758516,0.0097751703
0.0097751703,0.0000000000,0.0391006832,0.0000000000
0.0195503416,0.0000000000,0.0391006832,0.0000000000
0.0195503416,0.0000000000,0.0488758516,0.0000000000
0.0293255119,0.0000000000,0.0488758516,0.0000000000
0.0293255119,0.0000000000,0.0488758516,0.0000000000
0.0293255119,0.0000000000,0.0488758516,0.0000000000
0.0488758516,0.0000000000,0.0586510229,0.0000000000
0.0391006832,0.0000000000,0.0586510229,0.0097751703
0.0391006832,0.0000000000,0.0488758516,0.0097751703
0.0391006832,0.0000000000,0.0488758516,0.0000000000
0.0293255119,0.0000000000,0.0586510229,0.0097751703
0.0293255119,0.0000000000,0.0586510229,0.0000000000
0.0293255119,0.0000000000,0.0684261989,0.0097751703
0.0195503416,0.0000000000,0.0782013654,0.0097751703
0.0293255119,0.0000000000,0.0782013654,0.0097751703
0.0293255119,0.0000000000,0.0684261989,0.0097751703
0.0195503416,0.0000000000,0.0586510229,0.0097751703
0.0195503416,0.0000000000,0.0586510229,0.0097751703
0.0195503416,0.0000000000,0.0586510229,0.0195503416
0.0195503416,0.0000000000,0.0684261989,0.0195503416
0.0195503416,0.0000000000,0.0782013654,0.0195503416
0.0293255119,0.0000000000,0.0684261989,0.0195503416
0.0293255119,0.0000000000,0.0684261989,0.0195503416
0.0293255119,0.0000000000,0.0684261989,0.0195503416
0.0195503416,0.0000000000,0.0782013654,0.0293255119
0.0293255119,0.0000000000,0.0782013654,0.0391006832
0.0293255119,0.0000000000,0.0879765415,0.0293255119
0.0293255119,0.0000000000,0.0782013654,0.0391006832
0.0293255119,0.0000000000,0.0879765415,0.0293255119
0.0293255119,0.0000000000,0.0879765415,0.0391006832
0.0293255119,0.0000000000,0.0977517032,0.0391006832
0.0488758516,0.0000000000,0.0977517032,0.0391006832
0.0488758516,0.0000000000,0.0977517032,0.0391006832
0.0488758516,0.0000000000,0.0977517032,0.0391006832
0.0391006832,0.0000000000,0.1075268864,0.0391006832
0.0293255119,0.0000000000,0.1173020482,0.0391006832
0.0293255119,0.0000000000,0.1368523955,0.0391006832
0.0195503416,0.0000000000,0.1368523955,0.0391006832
0.0195503416,0.0000000000,0.1270772218,0.0391006832
0.0195503416,0.0000000000,0.1270772218,0.0293255119
0.0195503416,0.0000000000,0.1270772218,0.1075268864
0.0195503416,0.0000000000,0.1270772218,0.0879765415
0.0195503416,0.0000000000,0.1466275596,0.0782013654
0.0293255119,0.0000000000,0.1368523955,0.0684261989
0.0293255119,0.0000000000,0.1173020482,0.0684261989
0.0195503416,0.0000000000,0.1270772218,0.0684261989
0.0293255119,0.0000000000,0.1173020482,0.0879765415
0.0195503416,0.0000000000,0.1270772218,0.0879765415
0.0195503416,0.0000000000,0.1075268864,0.0977517032
0.0293255119,0.0000000000,0.1173020482,0.0879765415
0.0293255119,0.0000000000,0.1173020482,0.0879765415
0.0293255119,0.0000000000,0.1173020482,0.0879765415
0.0293255119,0.0000000000,0.1075268864,0.0977517032
0.0391006832,0.0000000000,0.1173020482,0.0879765415
0.0293255119,0.0000000000,0.1368523955,0.0977517032
0.0391006832,0.0000000000,0.1173020482,0.0879765415
0.0293255119,0.0000000000,0.1075268864,0.0782013654
0.0293255119,0.0000000000,0.0977517032,0.0684261989
0.0391006832,0.0000000000,0.0977517032,0.0586510229
0.0293255119,0.0000000000,0.0879765415,0.0684261989
0.0391006832,0.0000000000,0.0879765415,0.0586510229
0.0488758516,0.0000000000,0.0879765415,0.0488758516
0.0488758516,0.0000000000,0.0977517032,0.0488758516
0.0488758516,0.0000000000,0.0879765415,0.0488758516
0.0488758516,0.0000000000,0.0782013654,0.0488758516
0.0488758516,0.0000000000,0.0879765415,0.0488758516
0.0684261989,0.0000000000,0.0879765415,0.0488758516
0.0684261989,0.0000000000,0.0782013654,0.0488758516
0.0879765415,0.0000000000,0.0684261989,0.0488758516
0.0879765415,0.0000000000,0.0782013654,0.0391006832
0.0879765415,0.0000000000,0.0684261989,0.0391006832
0.0879765415,0.0000000000,0.0684261989,0.0391006832
0.0782013654,0.0000000000,0.0684261989,0.0391006832
0.0782013654,0.0000000000,0.0586510229,0.0391006832
0.0684261989,0.0000000000,0.0586510229,0.0293255119
0.0684261989,0.0000000000,0.0684261989,0.0293255119
0.0684261989,0.0000000000,0.0586510229,0.0293255119
0.0782013654,0.0000000000,0.0488758516,0.0293255119
0.0684261989,0.0000000000,0.0684261989,0.0293255119
0.0684261989,0.0000000000,0.0586510229,0.0391006832
0.1368523955,0.0000000000,0.0586510229,0.0391006832
0.1173020482,0.0000000000,0.0488758516,0.0391006832
0.1075268864,0.0000000000,0.0488758516,0.0391006832
0.0879765415,0.0000000000,0.0586510229,0.0391006832
0.0782013654,0.0000000000,0.0586510229,0.0293255119
0.0782013654,0.0000000000,0.0586510229,0.0391006832
0.0977517032,0.0000000000,0.0586510229,0.0293255119
0.0879765415,0.0000000000,0.0586510229,0.0195503416
0.0782013654,0.0000000000,0.0586510229,0.0195503416
0.0684261989,0.0000000000,0.0586510229,0.0195503416
0.0586510229,0.0000000000,0.0586510229,0.0097751703
0.0586510229,0.0000000000,0.0488758516,0.0097751703
0.0586510229,0.0000000000,0.0488758516,0.0097751703
0.0488758516,0.0000000000,0.0488758516,0.0097751703
0.0488758516,0.0000000000,0.0488758516,0.0000000000
0.0488758516,0.0000000000,0.0684261989,0.0000000000
0.0391006832,0.0000000000,0.0586510229,0.0000000000
0.0488758516,0.0000000000,0.0586510229,0.0000000000
0.0391006832,0.0000000000,0.0586510229,0.0000000000
0.0391006832,0.0000000000,0.0586510229,0.0000000000
0.0391006832,0.0000000000,0.0684261989,0.0000000000
0.0293255119,0.0000000000,0.0586510229,0.0000000000
0.0391006832,0.0000000000,0.0586510229,0.0000000000
0.0293255119,0.0000000000,0.0488758516,0.0000000000
0.0195503416,0.0000000000,0.0391006832,0.0000000000
0.0195503416,0.0000000000,0.0488758516,0.0000000000
0.0195503416,0.0000000000,0.0488758516,0.0000000000
0.0195503416,0.0000000000,0.0488758516,0.0000000000
0.0195503416,0.0000000000,0.0488758516,0.0097751703
0.0195503416,0.0000000000,0.0488758516,0.0097751703
0.0195503416,0.0000000000,0.0684261989,0.0097751703
0.0195503416,0.0000000000,0.0684261989,0.0195503416
0.0097751703,0.0000000000,0.0586510229,0.0195503416
0.0097751703,0.0000000000,0.0488758516,0.0097751703
0.0097751703,0.0000000000,0.0586510229,0.0097751703
0.0097751703,0.0000000000,0.0488758516,0.0195503416
0.0097751703,0.0000000000,0.0488758516,0.0195503416
0.0097751703,0.0000000000,0.0586510229,0.0097751703
0.0000000000,0.0000000000,0.0586510229,0.0097751703
0.0097751703,0.0000000000,0.0586510229,0.0097751703
0.0097751703,0.0000000000,0.0488758516,0.0097751703
0.0097751703,0.0000000000,0.0684261989,0.0000000000
0.0097751703,0.0000000000,0.0586510229,0.0000000000
0.0293255119,0.0000000000,0.0488758516,0.0000000000
0.0586510229,0.0000000000,0.0586510229,0.0000000000
0.0684261989,0.0000000000,0.0488758516,0.0000000000
0.0684261989,0.0000000000,0.0488758516,0.0000000000
0.0488758516,0.0000000000,0.0586510229,0.0000000000
0.0391006832,0.0000000000,0.0488758516,0.0000000000
0.0391006832,0.0000000000,0.0488758516,0.0000000000
0.0293255119,0.0000000000,0.0488758516,0.0000000000
0.0391006832,0.0000000000,0.0586510229,0.0000000000
0.0586510229,0.0000000000,0.0586510229,0.0000000000
0.0586510229,0.0000000000,0.0488758516,0.0000000000
0.0586510229,0.0000000000,0.0586510229,0.0000000000
0.0586510229,0.0097751703,0.0586510229,0.0000000000
0.0488758516,0.0097751703,0.0488758516,0.0000000000
0.0488758516,0.0195503416,0.0488758516,0.0000000000
0.0293255119,0.0195503416,0.0488758516,0.0000000000
0.0293255119,0.0195503416,0.0488758516,0.0000000000
0.0391006832,0.0195503416,0.0488758516,0.0000000000
0.0391006832,0.0097751703,0.0488758516,0.0000000000
0.0391006832,0.0097751703,0.0488758516,0.0000000000
0.0391006832,0.0000000000,0.0391006832,0.0000000000
0.0391006832,0.0000000000,0.0391006832,0.0000000000
0.0391006832,0.0000000000,0.0293255119,0.0000000000
0.0391006832,0.0000000000,0.0488758516,0.0097751703
0.0293255119,0.0000000000,0.0586510229,0.0195503416
0.0293255119,0.0000000000,0.0586510229,0.0195503416
0.0293255119,0.0000000000,0.0586510229,0.0293255119
0.0293255119,0.0000000000,0.0488758516,0.0293255119
0.0195503416,0.0000000000,0.0684261989,0.0195503416
0.0195503416,0.0000000000,0.0586510229,0.0195503416
0.0097751703,0.0000000000,0.0586510229,0.0097751703
0.0097751703,0.0000000000,0.0586510229,0.0097751703
0.0195503416,0.0000000000,0.0488758516,0.0097751703
0.0195503416,0.0000000000,0.0488758516,0.0097751703
0.0195503416,0.0000000000,0.0488758516,0.0000000000
0.0391006832,0.0000000000,0.0586510229,0.0000000000
0.0391006832,0.0000000000,0.0586510229,0.0000000000
0.0293255119,0.0000000000,0.0586510229,0.0097751703
0.0293255119,0.0000000000,0.0684261989,0.0000000000
0.0293255119,0.0000000000,0.0684261989,0.0000000000
0.0195503416,0.0000000000,0.0684261989,0.0000000000
0.0195503416,0.0000000000,0.0684261989,0.0097751703
0.0195503416,0.0000000000,0.0684261989,0.0000000000
0.0195503416,0.0000000000,0.0586510229,0.0097751703
0.0195503416,0.0000000000,0.0684261989,0.0097751703
0.0195503416,0.0000000000,0.0684261989,0.0097751703
0.0195503416,0.0000000000,0.0782013654,0.0097751703
0.0195503416,0.0000000000,0.0684261989,0.0000000000
0.0195503416,0.0000000000,0.0782013654,0.0000000000
0.0097751703,0.0000000000,0.0684261989,0.0000000000
0.0097751703,0.0000000000,0.0782013654,0.0000000000
0.0097751703,0.0000000000,0.0782013654,0.0000000000
0.0195503416,0.0000000000,0.0782013654,0.0000000000
0.0195503416,0.0000000000,0.0782013654,0.0097751703
0.0195503416,0.0000000000,0.0782013654,0.0000000000
0.0293255119,0.0000000000,0.0782013654,0.0097751703
0.0293255119,0.0000000000,0.0782013654,0.0195503416
0.0391006832,0.0000000000,0.0782013654,0.0195503416
0.0293255119,0.0000000000,0.0782013654,0.0195503416
0.0195503416,0.0000000000,0.0782013654,0.0195503416
0.0195503416,0.0000000000,0.0782013654,0.0195503416
0.0097751703,0.0000000000,0.0879765415,0.0195503416
0.0097751703,0.0000000000,0.0782013654,0.0195503416
0.0097751703,0.0000000000,0.0684261989,0.0195503416
0.0097751703,0.0000000000,0.0782013654,0.0097751703
0.0097751703,0.0000000000,0.0977517032,0.0097751703
0.0097751703,0.0000000000,0.0879765415,0.0097751703
0.0097751703,0.0000000000,0.0879765415,0.0000000000
0.0097751703,0.0000000000,0.0977517032,0.0000000000
0.0097751703,0.0000000000,0.1075268864,0.0000000000
0.0097751703,0.0000000000,0.0879765415,0.0000000000
0.0195503416,0.0000000000,0.0977517032,0.0097751703
0.0293255119,0.0000000000,0.0977517032,0.0097751703
0.0293255119,0.0000000000,0.0879765415,0.0097751703
0.0293255119,0.0000000000,0.0977517032,0.0000000000
0.0195503416,0.0000000000,0.0879765415,0.0000000000
0.0195503416,0.0000000000,0.0977517032,0.0000000000
0.0195503416,0.0000000000,0.0879765415,0.0000000000
0.0195503416,0.0000000000,0.0977517032,0.0000000000
0.0293255119,0.0000000000,0.0879765415,0.0000000000
0.0293255119,0.0000000000,0.1075268864,0.0000000000
0.0293255119,0.0000000000,0.0977517032,0.0000000000
0.0391006832,0.0000000000,0.0977517032,0.0097751703
0.0488758516,0.0000000000,0.0977517032,0.0097751703
0.0488758516,0.0000000000,0.0879765415,0.0097751703
0.0391006832,0.0000000000,0.1075268864,0.0195503416
0.0391006832,0.0000000000,0.0977517032,0.0195503416
0.0391006832,0.0000000000,0.0879765415,0.0195503416
0.0488758516,0.0000000000,0.0879765415,0.0293255119
0.0391006832,0.0000000000,0.0977517032,0.0293255119
0.0391006832,0.0000000000,0.0879765415,0.0293255119
0.0586510229,0.0000000000,0.0879765415,0.0293255119
0.0586510229,0.0000000000,0.0879765415,0.0293255119
0.0586510229,0.0000000000,0.0782013654,0.0195503416
0.0488758516,0.0000000000,0.0879765415,0.0293255119
0.0488758516,0.0000000000,0.0977517032,0.0195503416
0.0586510229,0.0000000000,0.0782013654,0.0195503416
0.0586510229,0.0000000000,0.0684261989,0.0293255119
0.0586510229,0.0000000000,0.0684261989,0.0195503416
0.0586510229,0.0000000000,0.0684261989,0.0293255119
0.0782013654,0.0000000000,0.0684261989,0.0293255119
0.0782013654,0.0000000000,0.0586510229,0.0293255119
0.0782013654,0.0000000000,0.0586510229,0.0293255119
0.0782013654,0.0000000000,0.0684261989,0.0391006832
0.0782013654,0.0000000000,0.0586510229,0.0391006832
0.0586510229,0.0000000000,0.0586510229,0.0391006832
0.0684261989,0.0000000000,0.0586510229,0.0391006832
0.0684261989,0.0000000000,0.0586510229,0.0391006832
0.0586510229,0.0000000000,0.0586510229,0.0391006832
0.0586510229,0.0000000000,0.0586510229,0.0488758516
0.0586510229,0.0000000000,0.0488758516,0.0488758516
0.0782013654,0.0000000000,0.0293255119,0.0488758516
0.0977517032,0.0000000000,0.0488758516,0.0391006832
0.0879765415,0.0000000000,0.0586510229,0.0391006832
0.0879765415,0.0000000000,0.0488758516,0.0586510229
0.0879765415,0.0000000000,0.0391006832,0.0586510229
0.0782013654,0.0000000000,0.0488758516,0.0586510229
0.0782013654,0.0000000000,0.0586510229,0.0879765415
0.1075268864,0.0000000000,0.0586510229,0.0977517032
0.1075268864,0.0000000000,0.0488758516,0.0879765415
0.0977517032,0.0000000000,0.0488758516,0.0782013654
0.0879765415,0.0000000000,0.0586510229,0.0684261989
0.0782013654,0.0000000000,0.0586510229,0.0586510229
0.1368523955,0.0000000000,0.0488758516,0.0586510229
0.1759530782,0.0000000000,0.0391006832,0.0586510229
0.2834799575,0.0000000000,0.0391006832,0.0586510229
0.2639296054,0.0000000000,0.0586510229,0.0488758516
0.2248289346,0.0000000000,0.0488758516,0.0391006832
0.2248289346,0.0097751703,0.0488758516,0.0293255119
0.1857282543,0.0195503416,0.0586510229,0.0293255119
0.1564027309,0.0195503416,0.0488758516,0.0293255119
0.1368523955,0.0195503416,0.0488758516,0.0293255119
0.1075268864,0.0195503416,0.0586510229,0.0293255119
0.0879765415,0.0097751703,0.0586510229,0.0195503416
0.0879765415,0.0097751703,0.0586510229,0.0195503416
0.0879765415,0.0097751703,0.0684261989,0.0195503416
0.0684261989,0.0000000000,0.0684261989,0.0097751703
0.0586510229,0.0000000000,0.0684261989,0.0195503416
0.0586510229,0.0000000000,0.0586510229,0.0195503416
0.0586510229,0.0000000000,0.0488758516,0.0195503416
0.0586510229,0.0000000000,0.0586510229,0.0195503416
0.0488758516,0.0000000000,0.0488758516,0.0195503416
0.0391006832,0.0000000000,0.0488758516,0.0293255119
0.0293255119,0.0000000000,0.0488758516,0.0195503416
0.0293255119,0.0000000000,0.0391006832,0.0195503416
0.0293255119,0.0000000000,0.0488758516,0.0195503416
0.0195503416,0.0000000000,0.0586510229,0.0097751703
0.0195503416,0.0000000000,0.0488758516,0.0195503416
0.0195503416,0.0000000000,0.0391006832,0.0195503416
0.0195503416,0.0000000000,0.0391006832,0.0293255119
0.0195503416,0.0000000000,0.0488758516,0.0293255119
0.0097751703,0.0000000000,0.0488758516,0.0391006832
0.0097751703,0.0000000000,0.0488758516,0.0293255119
0.0097751703,0.0000000000,0.0391006832,0.0293255119
0.0097751703,0.0000000000,0.0293255119,0.0195503416
0.0097751703,0.0000000000,0.0391006832,0.0195503416
0.0097751703,0.0000000000,0.0391006832,0.0097751703
0.0097751703,0.0000000000,0.0391006832,0.0097751703
0.0097751703,0.0000000000,0.0391006832,0.0097751703
0.0097751703,0.0000000000,0.0391006832,0.0097751703
0.0391006832,0.0000000000,0.0391006832,0.0097751703
0.1173020482,0.0000000000,0.0586510229,0.0000000000
0.0977517032,0.0000000000,0.0488758516,0.0097751703
0.0879765415,0.0000000000,0.0391006832,0.0097751703
0.0782013654,0.0000000000,0.0488758516,0.0000000000
0.0684261989,0.0000000000,0.0586510229,0.0000000000
0.0586510229,0.0000000000,0.0586510229,0.0000000000
0.0586510229,0.0000000000,0.0586510229,0.0000000000
0.0488758516,0.0000000000,0.0586510229,0.0097751703
0.0488758516,0.0000000000,0.0684261989,0.0097751703
0.0391006832,0.0000000000,0.0684261989,0.0097751703
0.0391006832,0.0000000000,0.0586510229,0.0097751703
0.0586510229,0.0000000000,0.0586510229,0.0097751703
0.0488758516,0.0000000000,0.0488758516,0.0000000000
0.0488758516,0.0000000000,0.0488758516,0.0097751703
0.0391006832,0.0000000000,0.0488758516,0.0000000000
0.0293255119,0.0000000000,0.0586510229,0.0000000000
0.0293255119,0.0000000000,0.0488758516,0.0000000000
0.0293255119,0.0097751703,0.0684261989,0.0000000000
0.0391006832,0.0097751703,0.0684261989,0.0000000000
0.0488758516,0.0097751703,0.0586510229,0.0000000000
0.0488758516,0.0195503416,0.0684261989,0.0097751703
0.0391006832,0.0195503416,0.0586510229,0.0097751703
0.0391006832,0.0195503416,1.8084066390,0.0097751703
0.0293255119,0.0195503416,1.7204301357,0.0097751703
0.0293255119,0.0195503416,1.3782991170,0.0097751703
0.0293255119,0.0195503416,1.0850440216,0.0097751703
0.0195503416,0.0195503416,0.8699902534,0.0097751703
0.0195503416,0.0097751703,0.6940371513,0.0097751703
0.0293255119,0.0097751703,0.5571847438,0.0097751703
0.0195503416,0.0097751703,0.4496578693,0.0293255119
0.0195503416,0.0000000000,0.3616813421,0.0293255119
0.0195503416,0.0000000000,0.3030303001,0.0195503416
0.0195503416,0.0000000000,0.2443792819,0.0097751703
0.0293255119,0.0000000000,0.2052785873,0.0097751703
0.0195503416,0.0000000000,0.1759530782,0.0195503416
0.0195503416,0.0000000000,0.1564027309,0.0195503416
0.0195503416,0.0000000000,0.1368523955,0.0097751703
0.0195503416,0.0000000000,0.1270772218,0.0097751703
0.0195503416,0.0000000000,0.1173020482,0.0097751703
0.0195503416,0.0000000000,0.0977517032,0.0097751703
0.0293255119,0.0000000000,0.0977517032,0.0097751703
0.0293255119,0.0000000000,0.0977517032,0.0000000000
0.0293255119,0.0000000000,0.0879765415,0.0000000000
0.0293255119,0.0000000000,0.0977517032,0.0097751703
0.0293255119,0.0000000000,0.1075268864,0.0000000000
0.0293255119,0.0000000000,0.0977517032,0.0097751703
0.0195503416,0.0000000000,0.0977517032,0.0000000000
0.0293255119,0.0000000000,0.1075268864,0.0000000000
0.0293255119,0.0000000000,0.1075268864,0.0000000000
0.0293255119,0.0000000000,0.1173020482,0.0000000000
0.0293255119,0.0000000000,0.1466275596,0.0000000000
0.0195503416,0.0000000000,0.1857282543,0.0195503416
0.0293255119,0.0000000000,0.1759530782,0.0195503416
0.0195503416,0.0000000000,0.1955034160,0.0293255119
0.0195503416,0.0000000000,0.1955034160,0.0391006832
0.0195503416,0.0000000000,0.2248289346,0.0293255119
0.0195503416,0.0000000000,0.2248289346,0.0293255119
0.0195503416,0.0000000000,0.2150537729,0.0195503416
0.0195503416,0.0000000000,0.2346040964,0.0195503416
0.0293255119,0.0000000000,0.2639296054,0.0097751703
0.0293255119,0.0000000000,0.2541544437,0.0097751703
0.0391006832,0.0000000000,0.2443792819,0.0195503416
0.0391006832,0.0000000000,0.2248289346,0.0391006832
0.0391006832,0.0000000000,0.2150537729,0.0391006832
0.0391006832,0.0000000000,0.2248289346,0.0488758516
0.0391006832,0.0000000000,0.2443792819,0.0586510229
0.0391006832,0.0000000000,0.2052785873,0.0488758516
0.0391006832,0.0000000000,0.1955034160,0.0391006832
0.0391006832,0.0000000000,0.2443792819,0.0293255119
0.0293255119,0.0000000000,0.2248289346,0.0293255119
0.0293255119,0.0000000000,0.2346040964,0.0195503416
0.0293255119,0.0000000000,0.2248289346,0.0195503416
0.0195503416,0.0000000000,0.2150537729,0.0097751703
0.0293255119,0.0000000000,0.2248289346,0.0097751703
0.0293255119,0.0000000000,0.2052785873,0.0195503416
0.0293255119,0.0000000000,0.2248289346,0.0097751703
0.0391006832,0.0000000000,0.2639296054,0.0000000000
0.0391006832,0.0000000000,0.2639296054,0.0000000000
0.0293255119,0.0000000000,0.2639296054,0.0097751703
0.0293255119,0.0000000000,0.2443792819,0.0097751703
0.0391006832,0.0000000000,0.2346040964,0.0097751703
0.0488758516,0.0000000000,0.2052785873,0.0097751703
0.0488758516,0.0000000000,0.2443792819,0.0097751703
0.0586510229,0.0000000000,0.2248289346,0.0097751703
0.0488758516,0.0000000000,0.2150537729,0.0097751703
0.0488758516,0.0000000000,0.1857282543,0.0097751703
0.0586510229,0.0000000000,0.1955034160,0.0097751703
0.0488758516,0.0000000000,0.1759530782,0.0195503416
0.0488758516,0.0000000000,0.1857282543,0.0097751703
0.0488758516,0.0000000000,0.1759530782,0.0097751703
0.0391006832,0.0000000000,0.1759530782,0.0097751703
0.0391006832,0.0000000000,0.1661779165,0.0097751703
0.0293255119,0.0000000000,0.1466275596,0.0097751703
0.0391006832,0.0000000000,0.1466275596,0.0000000000
0.0391006832,0.0000000000,0.1564027309,0.0000000000
0.0488758516,0.0000000000,0.1466275596,0.0000000000
0.0488758516,0.0000000000,0.1368523955,0.0000000000
0.0586510229,0.0000000000,0.1075268864,0.0097751703
0.0586510229,0.0000000000,0.1466275596,0.0000000000
0.0684261989,0.0000000000,0.1368523955,0.0000000000
0.0684261989,0.0000000000,0.1270772218,0.0000000000
0.0684261989,0.0000000000,0.1564027309,0.0000000000
0.0684261989,0.0000000000,0.1564027309,0.0000000000
0.0684261989,0.0000000000,0.1661779165,0.0000000000
0.0879765415,0.0000000000,0.1564027309,0.0000000000
0.0879765415,0.0000000000,0.1661779165,0.0000000000
0.0879765415,0.0000000000,0.1759530782,0.0000000000
0.0879765415,0.0000000000,0.1661779165,0.0000000000
0.0977517032,0.0000000000,0.1661779165,0.0000000000
0.0977517032,0.0000000000,0.1466275596,0.0000000000
0.0977517032,0.0000000000,0.1270772218,0.0097751703
0.0977517032,0.0000000000,0.1368523955,0.0097751703
0.0977517032,0.0000000000,0.1173020482,0.0195503416
0.1661779165,0.0000000000,0.1270772218,0.0195503416
0.1857282543,0.0000000000,0.1173020482,0.0293255119
0.2150537729,0.0000000000,0.1075268864,0.0488758516
0.1857282543,0.0000000000,0.0977517032,0.0488758516
0.2052785873,0.0000000000,0.1075268864,0.0488758516
0.1857282543,0.0000000000,0.0879765415,0.0488758516
0.1661779165,0.0000000000,0.0879765415,0.0586510229
0.1368523955,0.0000000000,0.0782013654,0.0586510229
0.1173020482,0.0000000000,0.0684261989,0.0488758516
0.1173020482,0.0000000000,0.0684261989,0.0391006832
0.1075268864,0.0000000000,0.0684261989,0.0488758516
0.0977517032,0.0097751703,0.0879765415,0.0488758516
0.0879765415,0.0293255119,0.0879765415,0.0391006832
0.0782013654,0.0293255119,0.0879765415,0.0488758516
0.0684261989,0.0391006832,0.0879765415,0.0488758516
0.0684261989,0.0293255119,0.0879765415,0.0586510229
0.0684261989,0.0195503416,0.0879765415,0.0586510229
0.0586510229,0.0097751703,0.0879765415,0.0488758516
0.0488758516,0.0097751703,0.0782013654,0.0488758516
0.0391006832,0.0000000000,0.0782013654,0.0488758516
0.0391006832,0.0000000000,0.0879765415,0.0586510229
0.0391006832,0.0000000000,0.0879765415,0.0586510229
0.0391006832,0.0000000000,0.0782013654,0.0488758516
0.0293255119,0.0000000000,0.0782013654,0.0586510229
0.0195503416,0.0000000000,0.0684261989,0.0488758516
0.0293255119,0.0000000000,0.0586510229,0.0586510229
0.0293255119,0.0000000000,0.0586510229,0.0586510229
0.0293255119,0.0000000000,0.0488758516,0.0879765415
0.0195503416,0.0000000000,0.0488758516,0.0977517032
0.0195503416,0.0000000000,0.0586510229,0.1075268864
0.0195503416,0.0000000000,0.0488758516,0.1173020482
0.0097751703,0.0000000000,0.0391006832,0.1173020482
0.0097751703,0.0000000000,0.0391006832,0.1173020482
0.0097751703,0.0000000000,0.0391006832,0.1075268864
0.0097751703,0.0000000000,0.0391006832,0.1075268864
0.0097751703,0.0000000000,0.0293255119,0.1075268864
0.0097751703,0.0000000000,0.0293255119,0.0879765415
0.0097751703,0.0000000000,0.0391006832,0.0879765415
0.0000000000,0.0000000000,0.0391006832,0.0684261989
0.0000000000,0.0000000000,0.0391006832,0.0684261989
0.0000000000,0.0000000000,0.0391006832,0.0586510229
0.0000000000,0.0000000000,0.0391006832,0.0684261989
0.0000000000,0.0000000000,0.0488758516,0.0684261989
0.0000000000,0.0000000000,0.0391006832,0.0586510229
0.0000000000,0.0000000000,0.0391006832,0.0488758516
0.0000000000,0.0000000000,0.0488758516,0.0586510229
0.0195503416,0.0000000000,0.0488758516,0.0684261989
0.0488758516,0.0000000000,0.0488758516,0.0586510229
0.0586510229,0.0000000000,0.0391006832,0.0488758516
0.0488758516,0.0000000000,0.0488758516,0.0488758516
0.0488758516,0.0000000000,0.0391006832,0.0391006832
0.0391006832,0.0000000000,0.0391006832,0.0391006832
0.0391006832,0.0000000000,0.0391006832,0.0391006832
0.0293255119,0.0000000000,0.0488758516,0.0293255119
0.0293255119,0.0000000000,0.0488758516,0.0391006832
0.0391006832,0.0000000000,0.0488758516,0.0293255119
0.0586510229,0.0000000000,0.0488758516,0.0293255119
0.0586510229,0.0000000000,0.0488758516,0.0293255119
0.0586510229,0.0000000000,0.0391006832,0.0293255119
0.0488758516,0.0000000000,0.0488758516,0.0293255119
0.0488758516,0.0000000000,0.0488758516,0.0391006832
0.0488758516,0.0000000000,0.0488758516,0.0293255119
0.0391006832,0.0000000000,0.0488758516,0.0293255119
0.0293255119,0.0000000000,0.0488758516,0.0195503416
0.0195503416,0.0000000000,0.0488758516,0.0195503416
0.0195503416,0.0000000000,0.0488758516,0.0195503416
0.0391006832,0.0097751703,0.0488758516,0.0097751703
0.0586510229,0.0097751703,0.0391006832,0.0097751703
0.0488758516,0.0195503416,0.0488758516,0.0097751703
0.0488758516,0.0195503416,0.0391006832,0.0097751703
0.0488758516,0.0293255119,0.0391006832,0.0097751703
0.0488758516,0.0293255119,0.0488758516,0.0000000000
0.0488758516,0.0195503416,0.0488758516,0.0000000000
0.0488758516,0.0097751703,0.0586510229,0.0000000000
0.0488758516,0.0097751703,0.0488758516,0.0000000000
0.0391006832,0.0097751703,0.0488758516,0.0000000000
0.0293255119,0.0000000000,0.0488758516,0.0000000000
0.0293255119,0.0000000000,0.0586510229,0.0000000000
0.0293255119,0.0000000000,0.0488758516,0.0000000000
0.0195503416,0.0000000000,0.0488758516,0.0000000000
0.0195503416,0.0000000000,0.0586510229,0.0000000000
0.0195503416,0.0000000000,0.0586510229,0.0000000000
0.0195503416,0.0000000000,0.0391006832,0.0195503416
0.0391006832,0.0000000000,0.0391006832,0.0195503416
0.0391006832,0.0000000000,0.0391006832,0.0195503416
0.0293255119,0.0000000000,0.0488758516,0.0097751703
0.0293255119,0.0977517032,0.0684261989,0.0586510229
1.2023460865,1.6129032135,3.0694036483,0.8308895111
0.9481915473,1.2707722187,2.4633431434,0.6744868278
0.7429130077,1.0068426132,1.9843597412,0.5571847438
0.5865102291,0.8015640258,1.5933528900,0.4496578693
0.4594330310,0.6353860855,1.3000977039,0.3714565038
0.3714565038,0.5083088874,1.0752688646,0.3128054618
0.2932551193,0.4105571746,0.8895405769,0.2541544437
0.2443792819,0.3225806236,0.7331378459,0.2052785873
0.1857282543,0.2639296054,0.6256109237,0.1759530782
0.1564027309,0.2248289346,0.5571847438,0.1466275596
0.1270772218,0.1857282543,0.4887585639,0.1270772218
0.1075268864,0.1564027309,0.4007820129,0.1075268864
0.0879765415,0.1368523955,0.3323558330,0.0879765415
0.0782013654,0.1173020482,0.2932551193,0.0782013654
0.0684261989,0.0977517032,0.2443792819,0.0586510229
0.0488758516,0.0977517032,0.2150537729,0.0488758516
0.0488758516,0.0879765415,0.1955034160,0.0488758516
0.0391006832,0.0684261989,0.1759530782,0.0391006832
0.0293255119,0.0684261989,0.1564027309,0.0391006832
0.0293255119,0.0684261989,0.1270772218,0.0391006832
0.0293255119,0.0684261989,0.1173020482,0.0391006832
0.0195503416,0.0586510229,0.1270772218,0.0488758516
0.0293255119,0.0488758516,0.1270772218,0.0391006832
0.0293255119,0.0488758516,0.1075268864,0.0391006832
0.0391006832,0.0488758516,0.0879765415,0.0391006832
0.0293255119,0.0488758516,0.0977517032,0.0782013654
0.0293255119,0.0391006832,0.0879765415,0.0782013654
0.0293255119,0.0488758516,0.0879765415,0.0684261989
0.0293255119,0.0488758516,0.0879765415,0.0586510229
0.0195503416,0.0488758516,0.0879765415,0.0586510229
0.0195503416,0.0488758516,0.0782013654,0.0586510229
0.0293255119,0.0391006832,0.0586510229,0.0586510229
0.0293255119,0.0293255119,0.0488758516,0.0586510229
0.0293255119,0.0293255119,0.0684261989,0.0586510229
0.0195503416,0.0293255119,0.0684261989,0.0586510229
0.0097751703,0.0293255119,0.0684261989,0.0488758516
0.0195503416,0.0293255119,0.0586510229,0.0488758516
0.0097751703,0.0391006832,0.0684261989,0.0586510229
0.0097751703,0.0293255119,0.0586510229,0.0586510229
0.0097751703,0.0391006832,0.0586510229,0.0879765415
0.0195503416,0.0488758516,0.0488758516,0.0977517032
0.0195503416,0.0488758516,0.0586510229,0.0879765415
0.0195503416,0.0586510229,0.0586510229,0.0879765415
0.0097751703,0.0782013654,0.0586510229,0.1564027309
0.0097751703,0.0879765415,0.0488758516,0.1564027309
0.0097751703,0.0879765415,0.0586510229,0.1466275596
0.0195503416,0.0782013654,0.0488758516,0.1368523955
0.0097751703,0.0684261989,0.0488758516,0.1270772218
0.0195503416,0.0684261989,0.0488758516,0.1075268864
0.0195503416,0.0782013654,0.0488758516,0.1075268864
0.0195503416,0.0782013654,0.0488758516,0.0977517032
0.0195503416,0.0684261989,0.0488758516,0.0977517032
0.0097751703,0.0684261989,0.0586510229,0.0879765415
0.0097751703,0.0782013654,0.0488758516,0.0782013654
0.0097751703,0.0879765415,0.0586510229,0.0879765415
0.0097751703,0.0782013654,0.0488758516,0.0782013654
0.0097751703,0.0879765415,0.0586510229,0.0879765415
0.0097751703,0.0879765415,0.0586510229,0.0782013654
0.0097751703,0.0879765415,0.0586510229,0.0684261989
0.0097751703,0.0782013654,0.0586510229,0.0684261989
0.0097751703,0.0782013654,0.0586510229,0.0684261989
0.0097751703,0.0684261989,0.0488758516,0.0586510229
0.0097751703,0.0684261989,0.0586510229,0.0488758516
0.0097751703,0.0586510229,0.0586510229,0.0488758516
0.0097751703,0.0586510229,0.0586510229,0.0391006832
0.0195503416,0.0586510229,0.0684261989,0.0391006832
0.0097751703,0.0586510229,0.0782013654,0.0391006832
0.0097751703,0.0586510229,0.0782013654,0.0391006832
0.0097751703,0.0586510229,0.0684261989,0.0488758516
0.0097751703,0.0488758516,0.0684261989,0.0488758516
0.0097751703,0.0488758516,0.0684261989,0.0488758516
0.0097751703,0.0391006832,0.0782013654,0.0391006832
0.0097751703,0.0391006832,0.0782013654,0.0391006832
0.0097751703,0.0488758516,0.0879765415,0.0293255119
0.0097751703,0.0488758516,0.0879765415,0.0293255119
0.0097751703,0.0391006832,0.0782013654,0.0293255119
0.0097751703,0.0391006832,0.0782013654,0.0195503416
0.0097751703,0.0391006832,0.0879765415,0.0195503416
0.0097751703,0.0391006832,0.0782013654,0.0195503416
0.0097751703,0.0293255119,0.0782013654,0.0195503416
0.0097751703,0.0293255119,0.0782013654,0.0097751703
0.0097751703,0.0293255119,0.0782013654,0.0097751703
0.0097751703,0.0293255119,0.0782013654,0.0097751703
0.0195503416,0.0391006832,0.0782013654,0.0097751703
0.0195503416,0.0391006832,0.0684261989,0.0097751703
0.0293255119,0.0391006832,0.0684261989,0.0000000000
0.0293255119,0.0391006832,0.0684261989,0.0000000000
0.0293255119,0.0391006832,0.0782013654,0.0000000000
0.0293255119,0.0488758516,0.0782013654,0.0097751703
0.0293255119,0.0488758516,0.0684261989,0.0097751703
0.0391006832,0.0586510229,0.0782013654,0.0097751703
0.0293255119,0.0586510229,0.0879765415,0.0097751703
0.0293255119,0.0684261989,0.0879765415,0.0097751703
0.0391006832,0.0586510229,0.0879765415,0.0488758516
0.0488758516,0.0488758516,0.1173020482,0.0782013654
0.0488758516,0.0488758516,0.1173020482,0.1661779165
0.0391006832,0.0488758516,0.1173020482,0.1564027309
0.0391006832,0.0293255119,0.1075268864,0.1270772218
0.0391006832,0.0293255119,0.0977517032,0.1075268864
0.0488758516,0.0195503416,0.1075268864,0.0879765415
0.0488758516,0.0097751703,0.1173020482,0.0879765415
0.0488758516,0.0097751703,0.1075268864,0.0684261989
0.0488758516,0.0097751703,0.1075268864,0.0586510229
0.0586510229,0.0195503416,0.1173020482,0.0488758516
0.0684261989,0.0195503416,0.0977517032,0.0391006832
0.0586510229,0.0195503416,0.0977517032,0.0293255119
0.0586510229,0.0195503416,0.1173020482,0.0293255119
0.0684261989,0.0195503416,0.1270772218,0.0293255119
0.0684261989,0.0293255119,0.1270772218,0.0293255119
0.0684261989,0.0293255119,0.1270772218,0.0293255119
0.0684261989,0.0293255119,0.1270772218,0.0195503416
0.0782013654,0.0293255119,0.1564027309,0.0293255119
0.0684261989,0.0195503416,0.1857282543,0.0293255119
0.0684261989,0.0293255119,0.1955034160,0.0293255119
0.0684261989,0.0293255119,0.2150537729,0.0293255119
0.0782013654,0.0391006832,0.1955034160,0.0195503416
0.0782013654,0.0391006832,0.1857282543,0.0195503416
0.0782013654,0.0391006832,0.2248289346,0.0195503416
0.0782013654,0.0488758516,0.1955034160,0.0195503416
0.0977517032,0.0488758516,0.1661779165,0.0195503416
0.0879765415,0.0488758516,0.1564027309,0.0097751703
0.0782013654,0.0391006832,0.1759530782,0.0097751703
0.0782013654,0.0391006832,0.1857282543,0.0097751703
0.1564027309,0.0488758516,0.1759530782,0.0097751703
0.1368523955,0.0488758516,0.1857282543,0.0097751703
0.1368523955,0.0488758516,0.1955034160,0.0097751703
0.1075268864,0.0488758516,0.1857282543,0.0195503416
0.1075268864,0.0586510229,0.1857282543,0.0293255119
0.0977517032,0.0488758516,0.1661779165,0.0293255119
0.0977517032,0.0586510229,0.1759530782,0.0293255119
0.0879765415,0.0586510229,0.1564027309,0.0293255119
0.0782013654,0.0488758516,0.1564027309,0.0293255119
0.0684261989,0.0586510229,0.1466275596,0.0195503416
0.0684261989,0.0586510229,0.1564027309,0.0195503416
0.0586510229,0.0488758516,0.1466275596,0.0195503416
0.0488758516,0.0586510229,0.1270772218,0.0195503416
0.0586510229,0.0684261989,0.1270772218,0.0097751703
0.0488758516,0.0488758516,0.1270772218,0.0097751703
0.0391006832,0.0391006832,0.1075268864,0.0097751703
0.0488758516,0.0293255119,0.0977517032,0.0097751703
0.0488758516,0.0195503416,0.0977517032,0.0097751703
0.0488758516,0.0195503416,0.1173020482,0.0000000000
0.0488758516,0.0097751703,0.1075268864,0.0000000000
0.0586510229,0.0000000000,0.0977517032,0.0000000000
0.0488758516,0.0000000000,0.1173020482,0.0000000000
0.0488758516,0.0000000000,0.1173020482,0.0097751703
0.0488758516,0.0000000000,0.1173020482,0.0097751703
0.0488758516,0.0000000000,0.1173020482,0.0097751703
0.0391006832,0.0000000000,0.0977517032,0.0000000000
0.0293255119,0.0000000000,0.0977517032,0.0097751703
0.0293255119,0.0000000000,0.0879765415,0.0097751703
0.0293255119,0.0000000000,0.1270772218,0.0097751703
0.0195503416,0.0000000000,0.1075268864,0.0195503416
0.0195503416,0.0097751703,0.0977517032,0.0586510229
0.0097751703,0.0097751703,0.0977517032,0.0684261989
0.0097751703,0.0195503416,0.1075268864,0.0586510229
0.0097751703,0.0293255119,0.1075268864,0.0488758516
0.0097751703,0.0488758516,0.1075268864,0.0391006832
0.0097751703,0.0488758516,0.1075268864,0.0293255119
0.0097751703,0.0488758516,0.1075268864,0.0391006832
0.0097751703,0.0488758516,0.0977517032,0.0293255119
0.0097751703,0.0586510229,0.0879765415,0.0195503416
0.0097751703,0.0684261989,0.0879765415,0.0195503416
0.0097751703,0.0684261989,0.0977517032,0.0097751703
0.0000000000,0.0684261989,0.0782013654,0.0097751703
0.0000000000,0.0586510229,0.0879765415,0.0097751703
0.0000000000,0.0586510229,0.0879765415,0.0097751703
0.0000000000,0.0586510229,0.0782013654,0.0000000000
0.0000000000,0.0586510229,0.0586510229,0.0000000000
0.0000000000,0.0684261989,0.0586510229,0.0000000000
0.0000000000,0.0586510229,0.0488758516,0.0000000000
0.0195503416,0.0586510229,0.0488758516,0.0000000000
0.0782013654,0.0684261989,0.0488758516,0.0000000000
0.0782013654,0.0684261989,0.0488758516,0.0000000000
0.0586510229,0.0684261989,0.0391006832,0.0000000000
0.0488758516,0.0684261989,0.0391006832,0.0000000000
0.0391006832,0.0684261989,0.0488758516,0.0000000000
0.0391006832,0.0586510229,0.0488758516,0.0000000000
0.0293255119,0.0684261989,0.0391006832,0.0000000000
0.0195503416,0.0586510229,0.0391006832,0.0097751703
0.0195503416,0.0684261989,0.0488758516,0.0097751703
0.0195503416,0.0684261989,0.0586510229,0.0097751703
0.0195503416,0.0586510229,0.0488758516,0.0097751703
0.0391006832,0.0586510229,0.0488758516,0.0097751703
0.0391006832,0.0684261989,0.0879765415,0.0097751703
0.0488758516,0.0586510229,0.0977517032,0.0097751703
0.0391006832,0.0586510229,0.0782013654,0.0097751703
0.0488758516,0.0586510229,0.0684261989,0.0097751703
0.0391006832,0.0488758516,0.0782013654,0.0097751703
0.0391006832,0.0488758516,0.0782013654,0.0097751703
0.0391006832,0.0391006832,0.0684261989,0.0097751703
0.0391006832,0.0391006832,0.0586510229,0.0097751703
0.0391006832,0.0391006832,0.0684261989,0.0097751703
0.0391006832,0.0488758516,0.0684261989,0.0195503416
0.0391006832,0.0488758516,0.0782013654,0.0195503416
0.0391006832,0.0391006832,0.0684261989,0.0195503416
0.0391006832,0.0391006832,0.0586510229,0.0195503416
0.0391006832,0.0391006832,0.0586510229,0.0195503416
0.0391006832,0.0391006832,0.0586510229,0.0195503416
0.0391006832,0.0391006832,0.0586510229,0.0195503416
0.0391006832,0.0488758516,0.0488758516,0.0195503416
0.0293255119,0.0391006832,0.0684261989,0.0195503416
0.0293255119,0.0391006832,0.0586510229,0.0293255119
0.0195503416,0.0488758516,0.0586510229,0.0293255119
0.0195503416,0.0488758516,0.0488758516,0.0391006832
0.0195503416,0.0488758516,0.0488758516,0.0488758516
0.0195503416,0.0586510229,0.0586510229,0.0879765415
0.0195503416,0.0586510229,0.0586510229,0.1173020482
0.0195503416,0.0488758516,0.0586510229,0.1075268864
0.0293255119,0.0586510229,0.0488758516,0.0977517032
0.0293255119,0.0879765415,0.0488758516,0.0879765415
0.0293255119,0.0782013654,0.0488758516,0.0879765415
0.0195503416,0.0684261989,0.0488758516,0.0782013654
0.0195503416,0.0586510229,0.0488758516,0.0684261989
0.0097751703,0.0488758516,0.0586510229,0.0684261989
0.0097751703,0.0684261989,0.0586510229,0.0782013654
0.0195503416,0.0586510229,0.0684261989,0.0782013654
0.0195503416,0.0488758516,0.0586510229,0.0782013654
0.0195503416,0.0488758516,0.0586510229,0.1173020482
0.0195503416,0.0488758516,0.0586510229,0.1368523955
0.0195503416,0.0488758516,0.0586510229,0.1270772218
0.0195503416,0.0488758516,0.0488758516,0.1173020482
0.0195503416,0.0488758516,0.0586510229,0.1075268864
0.0195503416,0.0488758516,0.0586510229,0.1270772218
0.0097751703,0.0488758516,0.0488758516,0.1368523955
0.0097751703,0.0391006832,0.0488758516,0.1466275596
0.0097751703,0.0391006832,0.0488758516,0.1173020482
0.0097751703,0.0391006832,0.0586510229,0.1075268864
0.0097751703,0.0391006832,0.0586510229,0.0977517032
0.0097751703,0.0391006832,0.0488758516,0.0782013654
0.0097751703,0.0293255119,0.0488758516,0.0782013654
0.0097751703,0.0293255119,0.0488758516,0.0684261989
0.0097751703,0.0293255119,0.0586510229,0.0586510229
0.0000000000,0.0293255119,0.0586510229,0.0586510229
0.0097751703,0.0293255119,0.0488758516,0.0684261989
0.0097751703,0.0293255119,0.0488758516,0.0684261989
0.0097751703,0.0293255119,0.0391006832,0.0684261989
0.0097751703,0.0293255119,0.0391006832,0.0586510229
0.0097751703,0.0195503416,0.0488758516,0.0586510229
0.0195503416,0.0195503416,0.0391006832,0.0488758516
0.0195503416,0.0195503416,0.0488758516,0.0488758516
0.0097751703,0.0293255119,0.0488758516,0.0488758516
0.0097751703,0.0293255119,0.0586510229,0.0488758516
0.0097751703,0.0293255119,0.0586510229,0.0391006832
0.0097751703,0.0293255119,0.0586510229,0.0391006832
0.0097751703,0.0195503416,0.0586510229,0.0391006832
0.0097751703,0.0293255119,0.0684261989,0.0391006832
0.0097751703,0.0293255119,0.0684261989,0.0293255119
0.0097751703,0.0195503416,0.0684261989,0.0293255119
0.0097751703,0.0293255119,0.0684261989,0.0293255119
0.0097751703,0.0293255119,0.0586510229,0.0195503416
0.0195503416,0.0293255119,0.0684261989,0.0195503416
0.0195503416,0.0293255119,0.0488758516,0.0293255119
0.0097751703,0.0391006832,0.0488758516,0.0293255119
0.0097751703,0.0391006832,0.0488758516,0.0293255119
0.0195503416,0.0293255119,0.0586510229,0.0195503416
0.0195503416,0.0391006832,0.0586510229,0.0195503416
0.0195503416,0.0391006832,0.0586510229,0.0097751703
0.0195503416,0.0293255119,0.0586510229,0.0097751703
0.0195503416,0.0391006832,0.0782013654,0.0097751703
0.0195503416,0.0391006832,0.0782013654,0.0097751703
0.0195503416,0.0293255119,0.0782013654,0.0097751703
0.0195503416,0.0391006832,0.0684261989,0.0000000000
0.0293255119,0.0391006832,0.0684261989,0.0000000000
0.0293255119,0.0293255119,0.0684261989,0.0097751703
0.0293255119,0.0293255119,0.0586510229,0.0097751703
0.0391006832,0.0293255119,0.0586510229,0.0391006832
0.0488758516,0.0195503416,0.0782013654,0.0586510229
0.0391006832,0.0195503416,0.0684261989,0.0488758516
0.0391006832,0.0097751703,0.0879765415,0.0586510229
0.0391006832,0.0097751703,0.0879765415,0.0782013654
0.0391006832,0.0097751703,0.0782013654,0.0684261989
0.0488758516,0.0000000000,0.0782013654,0.0586510229
0.0488758516,0.0000000000,0.0684261989,0.0488758516
0.0391006832,0.0000000000,0.0684261989,0.0391006832
0.0488758516,0.0000000000,0.0684261989,0.0293255119
0.0586510229,0.0000000000,0.0684261989,0.0293255119
0.0488758516,0.0000000000,0.0879765415,0.0293255119
0.0488758516,0.0000000000,0.0879765415,0.0195503416
0.0586510229,0.0000000000,0.0879765415,0.0195503416
0.0684261989,0.0097751703,0.0782013654,0.0195503416
0.0684261989,0.0097751703,0.0879765415,0.0195503416
0.0684261989,0.0195503416,0.0782013654,0.0195503416
0.0684261989,0.0195503416,0.0782013654,0.0195503416
0.0782013654,0.0293255119,0.0782013654,0.0097751703
0.0879765415,0.0293255119,0.0879765415,0.0097751703
0.0879765415,0.0391006832,0.0879765415,0.0097751703
0.0782013654,0.0391006832,0.0977517032,0.0097751703
0.0879765415,0.0488758516,0.0977517032,0.0097751703
0.0782013654,0.0391006832,0.0977517032,0.0000000000
0.0879765415,0.0488758516,0.1075268864,0.0097751703
0.0879765415,0.0391006832,0.0977517032,0.0097751703
0.0977517032,0.0488758516,0.0879765415,0.0097751703
0.0977517032,0.0488758516,0.1173020482,0.0097751703
0.1075268864,0.0488758516,0.1075268864,0.0097751703
0.1270772218,0.0391006832,0.0977517032,0.0195503416
0.1564027309,0.0488758516,0.1075268864,0.0195503416
0.1661779165,0.0391006832,0.0977517032,0.0195503416
0.1759530782,0.0488758516,0.0977517032,0.0097751703
0.1564027309,0.0488758516,0.0977517032,0.0097751703
0.1466275596,0.0488758516,0.0879765415,0.0097751703
0.1368523955,0.0488758516,0.0977517032,0.0097751703
0.1270772218,0.0488758516,0.0977517032,0.0097751703
0.0977517032,0.0391006832,0.0879765415,0.0097751703
0.0977517032,0.0391006832,0.0879765415,0.0097751703
0.0879765415,0.0293255119,0.0879765415,0.0097751703
