1.573802567,2.854349899,0.957966709,1.368523955,0.928641224,2.404692173
2.218963861,2.717497587,0.791788864,1.153470159,0.772238493,2.003910065
2.521994114,2.316715479,0.654936409,1.006842613,0.645161247,1.642228699
2.649071455,2.121212006,0.547409582,0.840664673,0.557184744,1.397849445
2.512218952,1.847507381,0.449657869,0.733137846,0.478983355,1.192570925
2.062561035,1.700879812,0.391006832,0.645161247,0.410557175,1.006842613
1.710654974,1.554252148,0.342130995,0.547409582,0.361681342,0.85043993
1.42717495,1.466275692,0.3030303,0.518084049,0.312805462,0.713587475
1.182795639,1.476050854,0.263929605,0.430107546,0.273704791,0.615835762
0.977517128,1.42717495,0.234604096,0.400782013,0.234604096,0.527859211
0.811339188,1.33919847,0.215053773,0.430107546,0.224828935,0.459433031
0.664711666,1.231671572,0.205278587,0.420332336,0.195503416,0.459433031
0.557184744,1.065493703,0.175953078,0.439882708,0.166177917,0.508308887
0.469208193,0.938416386,0.175953078,0.400782013,0.166177917,0.430107546
0.391006832,0.801564026,0.166177917,0.400782013,0.156402731,0.498533726
0.322580624,0.694037151,0.175953078,0.38123167,0.156402731,0.459433031
0.283479958,0.625610924,0.175953078,0.342130995,0.136852396,0.400782013
0.254154444,0.547409582,0.166177917,0.361681342,0.127077222,0.351906157
0.224828935,0.576735067,0.166177917,0.351906157,0.117302048,0.322580624
0.205278587,0.518084049,0.185728254,0.351906157,0.107526886,0.263929605
0.185728254,0.53763442,0.175953078,0.342130995,0.097751703,0.244379282
0.166177917,0.586510229,0.195503416,0.312805462,0.097751703,0.234604096
0.14662756,0.566959906,0.224828935,0.293255119,0.087976542,0.234604096
0.127077222,0.508308887,0.215053773,0.283479958,0.078201365,0.205278587
0.127077222,0.488758564,0.244379282,0.3030303,0.078201365,0.175953078
0.127077222,0.439882708,0.254154444,0.351906157,0.097751703,0.166177917
0.117302048,0.430107546,0.283479958,0.439882708,0.097751703,0.14662756
0.117302048,0.38123167,0.332355833,0.420332336,0.087976542,0.127077222
0.117302048,0.351906157,0.342130995,0.410557175,0.097751703,0.127077222
0.107526886,0.332355833,0.361681342,0.439882708,0.087976542,0.175953078
0.117302048,0.400782013,0.410557175,0.410557175,0.107526886,0.185728254
0.117302048,0.361681342,0.420332336,0.420332336,0.097751703,0.215053773
0.117302048,0.351906157,0.410557175,0.410557175,0.097751703,0.215053773
0.127077222,0.332355833,0.391006832,0.371456504,0.107526886,0.244379282
0.117302048,0.312805462,0.420332336,0.371456504,0.107526886,0.234604096
0.127077222,0.3030303,0.488758564,0.391006832,0.107526886,0.205278587
0.107526886,0.3030303,0.449657869,0.361681342,0.107526886,0.224828935
0.107526886,0.283479958,0.498533726,0.371456504,0.107526886,0.195503416
0.097751703,0.283479958,0.527859211,0.38123167,0.107526886,0.175953078
0.097751703,0.3030303,0.518084049,0.400782013,0.107526886,0.185728254
0.107526886,0.38123167,0.518084049,0.400782013,0.107526886,0.166177917
0.107526886,0.449657869,0.53763442,0.38123167,0.107526886,0.14662756
0.117302048,0.459433031,0.566959906,0.38123167,0.097751703,0.136852396
0.117302048,0.478983355,0.53763442,0.391006832,0.097751703,0.117302048
0.136852396,0.498533726,0.586510229,0.38123167,0.087976542,0.117302048
0.127077222,0.576735067,0.615835762,0.38123167,0.097751703,0.097751703
0.127077222,0.615835762,0.576735067,0.371456504,0.097751703,0.107526886
0.117302048,0.6060606,0.586510229,0.342130995,0.097751703,0.097751703
0.107526886,0.615835762,0.625610924,0.322580624,0.087976542,0.078201365
0.097751703,0.625610924,0.596285439,0.322580624,0.087976542,0.078201365
0.087976542,0.615835762,0.654936409,0.332355833,0.107526886,0.068426199
0.078201365,0.596285439,0.733137846,0.312805462,0.097751703,0.058651023
0.068426199,0.625610924,0.703812313,0.293255119,0.097751703,0.058651023
0.078201365,0.596285439,0.713587475,0.283479958,0.097751703,0.058651023
0.097751703,0.625610924,0.733137846,0.293255119,0.097751703,0.068426199
0.107526886,0.586510229,0.801564026,0.3030303,0.107526886,0.078201365
0.107526886,0.615835762,0.830889511,0.342130995,0.107526886,0.087976542
0.097751703,0.625610924,0.957966709,0.3030303,0.097751703,0.087976542
0.087976542,0.664711666,0.98729229,0.3030303,0.097751703,0.097751703
0.078201365,0.694037151,1.055718422,0.3030303,0.107526886,0.107526886
0.068426199,0.879765415,1.094819183,0.273704791,0.097751703,0.087976542
0.078201365,0.948191547,1.153470159,0.254154444,0.087976542,0.078201365
0.078201365,0.830889511,1.065493703,0.244379282,0.078201365,0.068426199
0.087976542,0.742913008,1.114369512,0.283479958,0.078201365,0.068426199
0.087976542,0.957966709,1.16324532,0.293255119,0.087976542,0.078201365
0.087976542,0.938416386,1.251221895,0.283479958,0.107526886,0.078201365
0.087976542,0.889540577,1.231671572,0.3030303,0.097751703,0.087976542
0.097751703,0.821114349,1.124144673,0.293255119,0.097751703,0.078201365
0.087976542,0.772238493,1.173020482,0.273704791,0.087976542,0.078201365
0.087976542,0.772238493,1.212121248,0.244379282,0.078201365,0.068426199
0.097751703,0.85043993,1.260997057,0.234604096,0.087976542,0.068426199
0.097751703,0.742913008,1.192570925,0.273704791,0.097751703,0.058651023
0.107526886,0.625610924,1.133919835,0.283479958,0.097751703,0.058651023
0.107526886,0.664711666,1.143694997,0.273704791,0.097751703,0.058651023
0.107526886,0.694037151,1.085044022,0.283479958,0.087976542,0.058651023
0.107526886,0.752688169,1.143694997,0.273704791,0.078201365,0.078201365
0.107526886,0.762463331,1.202346087,0.263929605,0.078201365,0.078201365
0.097751703,0.752688169,1.28054738,0.244379282,0.078201365,0.068426199
0.097751703,0.664711666,1.417399788,0.263929605,0.078201365,0.087976542
0.097751703,0.615835762,1.309872866,0.312805462,0.078201365,0.087976542
0.097751703,0.576735067,1.251221895,0.312805462,0.097751703,0.087976542
0.097751703,0.596285439,1.28054738,0.322580624,0.107526886,0.097751703
0.087976542,0.53763442,1.260997057,0.3030303,0.097751703,0.097751703
0.078201365,0.566959906,1.290322542,0.312805462,0.078201365,0.107526886
0.087976542,0.527859211,1.241446733,0.322580624,0.087976542,0.117302048
0.087976542,0.488758564,1.260997057,0.312805462,0.087976542,0.107526886
0.087976542,0.469208193,1.358748794,0.332355833,0.087976542,0.097751703
0.087976542,0.459433031,1.290322542,0.342130995,0.087976542,0.107526886
0.087976542,0.498533726,1.28054738,0.312805462,0.087976542,0.117302048
0.097751703,0.674486828,1.309872866,0.3030303,0.078201365,0.107526886
0.097751703,0.664711666,1.290322542,0.293255119,0.078201365,0.107526886
0.097751703,0.615835762,1.202346087,0.322580624,0.087976542,0.097751703
0.097751703,0.615835762,1.33919847,0.312805462,0.087976542,0.097751703
0.097751703,0.566959906,1.260997057,0.332355833,0.097751703,0.087976542
0.107526886,0.596285439,1.45650053,0.342130995,0.087976542,0.078201365
0.097751703,0.557184744,1.397849445,0.332355833,0.097751703,0.078201365
0.097751703,0.478983355,1.544476986,0.351906157,0.087976542,0.068426199
0.087976542,0.439882708,1.466275692,0.391006832,0.097751703,0.068426199
0.097751703,0.400782013,1.358748794,0.400782013,0.078201365,0.058651023
0.097751703,0.361681342,1.358748794,0.400782013,0.087976542,0.048875852
0.097751703,0.439882708,1.241446733,0.430107546,0.087976542,0.039100683
0.097751703,0.420332336,1.173020482,0.439882708,0.087976542,0.039100683
0.087976542,0.371456504,1.006842613,0.38123167,0.078201365,0.039100683
0.087976542,0.351906157,0.85043993,0.420332336,0.078201365,0.039100683
0.078201365,0.391006832,0.782013655,0.410557175,0.078201365,0.048875852
0.078201365,0.38123167,0.752688169,0.469208193,0.078201365,0.058651023
0.078201365,0.361681342,0.713587475,0.469208193,0.087976542,0.068426199
0.087976542,0.351906157,0.645161247,0.488758564,0.078201365,0.078201365
0.107526886,0.322580624,0.557184744,0.518084049,0.068426199,0.078201365
0.107526886,0.3030303,0.527859211,0.518084049,0.078201365,0.087976542
0.107526886,0.312805462,0.469208193,0.566959906,0.087976542,0.087976542
0.097751703,0.273704791,0.439882708,0.547409582,0.087976542,0.087976542
0.097751703,0.263929605,0.400782013,0.498533726,0.087976542,0.078201365
0.097751703,0.273704791,0.420332336,0.566959906,0.087976542,0.078201365
0.087976542,0.263929605,0.478983355,0.566959906,0.078201365,0.068426199
0.097751703,0.263929605,0.410557175,0.53763442,0.087976542,0.058651023
0.097751703,0.244379282,0.351906157,0.557184744,0.087976542,0.058651023
0.097751703,0.234604096,0.351906157,0.635386086,0.097751703,0.058651023
0.097751703,0.215053773,0.3030303,0.723362684,0.107526886,0.058651023
0.097751703,0.195503416,0.273704791,0.723362684,0.097751703,0.058651023
0.087976542,0.185728254,0.293255119,0.694037151,0.087976542,0.058651023
0.087976542,0.175953078,0.273704791,0.654936409,0.087976542,0.068426199
0.087976542,0.175953078,0.254154444,0.742913008,0.097751703,0.068426199
0.097751703,0.14662756,0.263929605,0.752688169,0.087976542,0.068426199
0.097751703,0.156402731,0.283479958,0.879765415,0.087976542,0.068426199
0.097751703,0.166177917,0.273704791,0.860215092,0.078201365,0.078201365
0.087976542,0.156402731,0.263929605,1.036168098,0.068426199,0.078201365
0.078201365,0.175953078,0.254154444,1.124144673,0.078201365,0.078201365
0.078201365,0.195503416,0.234604096,1.231671572,0.078201365,0.087976542
0.097751703,0.195503416,0.224828935,1.202346087,0.078201365,0.078201365
0.097751703,0.166177917,0.234604096,1.329423308,0.078201365,0.068426199
0.097751703,0.156402731,0.224828935,1.436950111,0.078201365,0.068426199
0.097751703,0.156402731,0.254154444,1.397849445,0.087976542,0.068426199
0.087976542,0.166177917,0.263929605,1.348973632,0.087976542,0.058651023
0.087976542,0.166177917,0.332355833,1.22189641,0.087976542,0.068426199
0.097751703,0.14662756,0.391006832,1.124144673,0.087976542,0.068426199
0.087976542,0.136852396,0.400782013,1.231671572,0.078201365,0.068426199
0.087976542,0.127077222,0.459433031,1.358748794,0.087976542,0.068426199
0.097751703,0.107526886,0.420332336,1.388074284,0.078201365,0.068426199
0.097751703,0.117302048,0.430107546,1.358748794,0.078201365,0.068426199
0.078201365,0.107526886,0.508308887,1.231671572,0.087976542,0.078201365
0.078201365,0.107526886,0.498533726,1.260997057,0.078201365,0.078201365
0.087976542,0.107526886,0.53763442,1.348973632,0.087976542,0.087976542
0.107526886,0.097751703,0.53763442,1.28054738,0.078201365,0.078201365
0.107526886,0.107526886,0.557184744,1.231671572,0.087976542,0.078201365
0.097751703,0.117302048,0.635386086,1.173020482,0.078201365,0.087976542
0.087976542,0.107526886,0.645161247,1.143694997,0.068426199,0.078201365
0.078201365,0.107526886,0.625610924,1.094819183,0.068426199,0.078201365
0.078201365,0.117302048,0.674486828,1.143694997,0.068426199,0.068426199
0.068426199,0.127077222,0.703812313,1.192570925,0.087976542,0.068426199
0.068426199,0.117302048,0.713587475,1.212121248,0.097751703,0.068426199
0.078201365,0.097751703,0.664711666,1.075268865,0.087976542,0.068426199
0.087976542,0.097751703,0.694037151,1.133919835,0.097751703,0.068426199
0.097751703,0.087976542,0.742913008,1.10459435,0.078201365,0.058651023
0.087976542,0.087976542,0.762463331,1.055718422,0.087976542,0.068426199
0.078201365,0.087976542,0.694037151,1.036168098,0.087976542,0.078201365
0.078201365,0.087976542,0.703812313,1.016617775,0.087976542,0.078201365
0.087976542,0.078201365,0.625610924,1.153470159,0.087976542,0.087976542
0.087976542,0.107526886,0.615835762,1.085044022,0.078201365,0.078201365
0.097751703,0.097751703,0.596285439,1.055718422,0.087976542,0.068426199
0.097751703,0.087976542,0.566959906,1.006842613,0.078201365,0.058651023
0.087976542,0.078201365,0.566959906,1.04594326,0.087976542,0.068426199
0.087976542,0.078201365,0.615835762,1.094819183,0.097751703,0.068426199
0.087976542,0.087976542,0.674486828,1.231671572,0.087976542,0.068426199
0.097751703,0.087976542,0.654936409,1.192570925,0.087976542,0.068426199
0.087976542,0.078201365,0.674486828,1.10459435,0.087976542,0.058651023
0.087976542,0.078201365,0.713587475,1.153470159,0.097751703,0.068426199
0.087976542,0.087976542,0.782013655,1.397849445,0.087976542,0.058651023
0.097751703,0.087976542,0.703812313,1.358748794,0.087976542,0.058651023
0.097751703,0.087976542,0.733137846,1.22189641,0.078201365,0.068426199
0.097751703,0.087976542,0.762463331,1.251221895,0.078201365,0.068426199
0.087976542,0.087976542,0.821114349,1.065493703,0.078201365,0.068426199
0.097751703,0.078201365,0.830889511,1.270772219,0.068426199,0.068426199
0.097751703,0.068426199,0.830889511,1.16324532,0.068426199,0.078201365
0.097751703,0.068426199,0.782013655,1.16324532,0.068426199,0.078201365
0.087976542,0.068426199,0.821114349,1.241446733,0.068426199,0.078201365
0.078201365,0.068426199,0.840664673,1.251221895,0.078201365,0.087976542
0.087976542,0.068426199,0.879765415,1.153470159,0.097751703,0.078201365
0.087976542,0.078201365,0.899315739,1.358748794,0.107526886,0.078201365
0.078201365,0.078201365,0.85043993,1.270772219,0.097751703,0.078201365
0.087976542,0.087976542,0.879765415,1.329423308,0.087976542,0.068426199
0.087976542,0.087976542,0.860215092,1.231671572,0.087976542,0.068426199
0.087976542,0.097751703,0.85043993,1.212121248,0.078201365,0.068426199
0.097751703,0.097751703,0.762463331,1.505376339,0.068426199,0.068426199
0.087976542,0.097751703,0.703812313,1.466275692,0.078201365,0.068426199
0.087976542,0.097751703,0.635386086,1.378299117,0.087976542,0.058651023
0.087976542,0.097751703,0.586510229,1.28054738,0.097751703,0.058651023
0.087976542,0.097751703,0.586510229,1.42717495,0.097751703,0.058651023
0.078201365,0.087976542,0.596285439,1.524926662,0.107526886,0.058651023
0.078201365,0.078201365,0.547409582,1.446725368,0.107526886,0.068426199
0.078201365,0.087976542,0.547409582,1.505376339,0.097751703,0.068426199
0.078201365,0.078201365,0.478983355,1.476050854,0.107526886,0.068426199
0.087976542,0.097751703,0.449657869,1.397849445,0.107526886,0.068426199
0.097751703,0.087976542,0.439882708,1.348973632,0.097751703,0.068426199
0.097751703,0.087976542,0.420332336,1.28054738,0.097751703,0.068426199
0.087976542,0.087976542,0.439882708,1.309872866,0.087976542,0.068426199
0.087976542,0.087976542,0.391006832,1.485826015,0.078201365,0.068426199
0.087976542,0.087976542,0.38123167,1.348973632,0.087976542,0.068426199
0.087976542,0.087976542,0.351906157,1.329423308,0.078201365,0.078201365
0.087976542,0.087976542,0.312805462,1.388074284,0.107526886,0.078201365
0.078201365,0.087976542,0.273704791,1.290322542,0.107526886,0.078201365
0.087976542,0.078201365,0.312805462,1.192570925,0.107526886,0.068426199
0.087976542,0.087976542,0.312805462,1.094819183,0.107526886,0.068426199
0.078201365,0.087976542,0.322580624,0.938416386,0.107526886,0.068426199
0.097751703,0.087976542,0.293255119,0.840664673,0.127077222,0.068426199
0.087976542,0.078201365,0.312805462,0.791788864,0.136852396,0.068426199
0.087976542,0.078201365,0.3030303,0.713587475,0.136852396,0.068426199
0.087976542,0.087976542,0.273704791,0.586510229,0.136852396,0.068426199
0.087976542,0.078201365,0.273704791,0.557184744,0.156402731,0.068426199
0.087976542,0.078201365,0.273704791,0.518084049,0.185728254,0.068426199
0.087976542,0.078201365,0.254154444,0.478983355,0.175953078,0.068426199
0.078201365,0.078201365,0.244379282,0.410557175,0.175953078,0.068426199
0.087976542,0.078201365,0.234604096,0.361681342,0.215053773,0.068426199
0.087976542,0.078201365,0.205278587,0.391006832,0.244379282,0.078201365
0.087976542,0.078201365,0.205278587,0.391006832,0.254154444,0.078201365
0.078201365,0.068426199,0.205278587,0.400782013,0.254154444,0.078201365
0.078201365,0.068426199,0.205278587,0.420332336,0.293255119,0.078201365
0.078201365,0.078201365,0.205278587,0.430107546,0.293255119,0.078201365
0.087976542,0.068426199,0.205278587,0.439882708,0.3030303,0.078201365
0.087976542,0.078201365,0.205278587,0.391006832,0.342130995,0.068426199
0.087976542,0.078201365,0.205278587,0.322580624,0.293255119,0.068426199
0.087976542,0.078201365,0.205278587,0.273704791,0.332355833,0.068426199
0.087976542,0.078201365,0.215053773,0.273704791,0.312805462,0.068426199
0.078201365,0.078201365,0.205278587,0.263929605,0.332355833,0.068426199
0.078201365,0.068426199,0.195503416,0.283479958,0.361681342,0.068426199
0.078201365,0.068426199,0.185728254,0.273704791,0.391006832,0.068426199
0.078201365,0.068426199,0.185728254,0.234604096,0.391006832,0.068426199
0.087976542,0.078201365,0.195503416,0.205278587,0.371456504,0.068426199
0.097751703,0.078201365,0.185728254,0.195503416,0.400782013,0.068426199
0.097751703,0.078201365,0.175953078,0.205278587,0.38123167,0.068426199
0.097751703,0.078201365,0.175953078,0.254154444,0.410557175,0.068426199
0.097751703,0.078201365,0.185728254,0.273704791,0.459433031,0.068426199
0.097751703,0.078201365,0.195503416,0.3030303,0.566959906,0.068426199
0.097751703,0.078201365,0.205278587,0.322580624,0.527859211,0.068426199
0.097751703,0.078201365,0.195503416,0.293255119,0.557184744,0.068426199
0.107526886,0.078201365,0.185728254,0.273704791,0.6060606,0.068426199
0.097751703,0.068426199,0.175953078,0.254154444,0.645161247,0.078201365
0.087976542,0.078201365,0.185728254,0.244379282,0.664711666,0.068426199
0.087976542,0.078201365,0.185728254,0.254154444,0.6060606,0.068426199
0.087976542,0.078201365,0.195503416,0.254154444,0.703812313,0.068426199
0.097751703,0.078201365,0.185728254,0.244379282,0.664711666,0.068426199
0.087976542,0.078201365,0.195503416,0.234604096,0.664711666,0.068426199
0.087976542,0.078201365,0.185728254,0.224828935,0.654936409,0.068426199
0.087976542,0.078201365,0.195503416,0.244379282,0.811339188,0.068426199
0.087976542,0.078201365,0.195503416,0.234604096,1.006842613,0.068426199
0.097751703,0.078201365,0.175953078,0.215053773,0.98729229,0.068426199
0.087976542,0.078201365,0.175953078,0.234604096,0.977517128,0.068426199
0.087976542,0.078201365,0.166177917,0.244379282,0.918866062,0.068426199
0.078201365,0.078201365,0.175953078,0.263929605,0.918866062,0.068426199
0.087976542,0.078201365,0.166177917,0.283479958,0.938416386,0.068426199
0.087976542,0.078201365,0.156402731,0.293255119,0.957966709,0.068426199
0.087976542,0.078201365,0.156402731,0.3030303,1.133919835,0.068426199
0.087976542,0.087976542,0.14662756,0.342130995,1.260997057,0.068426199
0.097751703,0.078201365,0.166177917,0.361681342,1.309872866,0.068426199
0.087976542,0.078201365,0.166177917,0.361681342,1.28054738,0.068426199
0.097751703,0.087976542,0.166177917,0.459433031,1.681329346,0.068426199
0.097751703,0.097751703,0.166177917,0.459433031,1.59335289,0.068426199
0.097751703,0.097751703,0.156402731,0.449657869,1.495601177,0.068426199
0.087976542,0.097751703,0.156402731,0.518084049,1.554252148,0.068426199
0.087976542,0.097751703,0.156402731,0.664711666,1.466275692,0.068426199
0.097751703,0.097751703,0.156402731,0.811339188,1.603128052,0.068426199
0.087976542,0.097751703,0.14662756,0.782013655,1.779081106,0.068426199
0.087976542,0.107526886,0.166177917,0.694037151,2.03323555,0.068426199
0.087976542,0.107526886,0.166177917,0.821114349,2.316715479,0.068426199
0.087976542,0.087976542,0.156402731,0.821114349,2.434017658,0.068426199
0.087976542,0.087976542,0.175953078,0.830889511,2.238514185,0.078201365
0.097751703,0.087976542,0.166177917,0.801564026,2.062561035,0.078201365
0.097751703,0.097751703,0.175953078,0.742913008,2.248289347,0.068426199
0.097751703,0.097751703,0.166177917,0.801564026,2.492668629,0.068426199
0.097751703,0.107526886,0.175953078,0.772238493,2.326490641,0.078201365
0.097751703,0.097751703,0.166177917,0.860215092,2.561094761,0.068426199
0.097751703,0.097751703,0.175953078,0.791788864,2.67839694,0.068426199
0.097751703,0.107526886,0.166177917,0.733137846,2.658846617,0.068426199
0.097751703,0.097751703,0.166177917,0.742913008,2.688172102,0.068426199
0.107526886,0.107526886,0.156402731,0.694037151,2.903225899,0.068426199
0.127077222,0.097751703,0.156402731,0.723362684,3.030303001,0.068426199
0.127077222,0.097751703,0.166177917,0.9090909,2.854349899,0.068426199
0.136852396,0.097751703,0.185728254,0.869990253,2.805474091,0.078201365
0.136852396,0.097751703,0.185728254,0.811339188,2.512218952,0.078201365
0.127077222,0.097751703,0.185728254,0.733137846,2.414467335,0.078201365
0.166177917,0.097751703,0.185728254,0.742913008,2.346040964,0.068426199
0.185728254,0.097751703,0.185728254,0.782013655,2.649071455,0.068426199
0.215053773,0.087976542,0.185728254,0.782013655,2.658846617,0.068426199
0.185728254,0.087976542,0.175953078,0.889540577,2.531769276,0.068426199
0.215053773,0.087976542,0.185728254,0.85043993,2.541544437,0.068426199
0.205278587,0.087976542,0.185728254,0.860215092,2.658846617,0.068426199
0.254154444,0.087976542,0.195503416,0.801564026,2.795698881,0.068426199
0.224828935,0.087976542,0.205278587,0.830889511,2.473118305,0.068426199
0.224828935,0.087976542,0.205278587,0.85043993,2.287389994,0.068426199
0.215053773,0.087976542,0.185728254,0.811339188,2.218963861,0.068426199
0.234604096,0.078201365,0.195503416,0.762463331,2.023460388,0.068426199
0.215053773,0.087976542,0.185728254,0.733137846,1.749755621,0.068426199
0.224828935,0.078201365,0.195503416,0.791788864,1.524926662,0.068426199
0.234604096,0.078201365,0.185728254,0.703812313,1.270772219,0.068426199
0.224828935,0.087976542,0.185728254,0.772238493,1.124144673,0.068426199
0.234604096,0.087976542,0.175953078,0.713587475,0.997067451,0.068426199
0.215053773,0.087976542,0.166177917,0.635386086,0.821114349,0.068426199
0.205278587,0.078201365,0.166177917,0.625610924,0.694037151,0.058651023
0.244379282,0.087976542,0.175953078,0.615835762,0.645161247,0.068426199
0.342130995,0.078201365,0.175953078,0.596285439,0.586510229,0.068426199
0.332355833,0.087976542,0.224828935,0.586510229,0.518084049,0.068426199
0.391006832,0.078201365,0.215053773,0.53763442,0.469208193,0.078201365
0.420332336,0.078201365,0.215053773,0.566959906,0.439882708,0.068426199
0.439882708,0.078201365,0.215053773,0.625610924,0.410557175,0.078201365
0.439882708,0.087976542,0.195503416,0.596285439,0.410557175,0.068426199
0.459433031,0.087976542,0.195503416,0.527859211,0.400782013,0.068426199
0.469208193,0.087976542,0.195503416,0.498533726,0.342130995,0.068426199
0.518084049,0.087976542,0.205278587,0.478983355,0.351906157,0.068426199
0.645161247,0.097751703,0.195503416,0.449657869,0.342130995,0.068426199
0.762463331,0.087976542,0.195503416,0.459433031,0.351906157,0.068426199
0.742913008,0.097751703,0.185728254,0.449657869,0.527859211,0.068426199
0.811339188,0.087976542,0.185728254,0.410557175,0.547409582,0.068426199
0.85043993,0.087976542,0.166177917,0.38123167,0.664711666,0.058651023
0.869990253,0.078201365,0.156402731,0.391006832,0.791788864,0.068426199
0.918866062,0.078201365,0.156402731,0.371456504,0.713587475,0.068426199
0.889540577,0.078201365,0.166177917,0.342130995,0.625610924,0.068426199
0.899315739,0.078201365,0.166177917,0.351906157,0.694037151,0.078201365
0.889540577,0.078201365,0.166177917,0.459433031,0.733137846,0.068426199
0.928641224,0.068426199,0.166177917,0.547409582,0.713587475,0.078201365
1.026392937,0.078201365,0.14662756,0.508308887,0.938416386,0.078201365
1.016617775,0.068426199,0.166177917,0.449657869,1.085044022,0.068426199
1.016617775,0.068426199,0.166177917,0.400782013,1.251221895,0.068426199
1.065493703,0.068426199,0.185728254,0.361681342,1.143694997,0.068426199
1.22189641,0.078201365,0.185728254,0.371456504,1.22189641,0.068426199
1.290322542,0.068426199,0.185728254,0.342130995,1.348973632,0.068426199
1.495601177,0.068426199,0.205278587,0.332355833,1.417399788,0.068426199
1.788856268,0.068426199,0.215053773,0.332355833,1.505376339,0.068426199
1.720430136,0.068426199,0.205278587,0.322580624,1.358748794,0.068426199
1.827957058,0.068426199,0.205278587,0.38123167,1.329423308,0.068426199
1.739980459,0.068426199,0.205278587,0.38123167,1.632453537,0.068426199
2.03323555,0.068426199,0.205278587,0.391006832,1.759530783,0.068426199
2.170088053,0.078201365,0.215053773,0.410557175,1.642228699,0.068426199
2.238514185,0.078201365,0.205278587,0.410557175,1.564027309,0.078201365
2.375366449,0.087976542,0.205278587,0.38123167,1.524926662,0.078201365
2.306940317,0.078201365,0.185728254,0.351906157,1.329423308,0.078201365
2.258064508,0.078201365,0.185728254,0.322580624,1.22189641,0.078201365
2.277614832,0.087976542,0.185728254,0.332355833,1.124144673,0.078201365
2.218963861,0.087976542,0.185728254,0.293255119,1.143694997,0.078201365
2.531769276,0.078201365,0.185728254,0.293255119,1.133919835,0.078201365
2.336265802,0.078201365,0.166177917,0.332355833,1.143694997,0.078201365
2.473118305,0.078201365,0.156402731,0.332355833,1.16324532,0.068426199
2.727272749,0.078201365,0.156402731,0.322580624,1.124144673,0.068426199
2.688172102,0.078201365,0.156402731,0.3030303,1.04594326,0.078201365
2.463343143,0.078201365,0.166177917,0.273704791,0.938416386,0.068426199
2.26783967,0.078201365,0.156402731,0.263929605,0.811339188,0.068426199
2.121212006,0.078201365,0.156402731,0.244379282,0.899315739,0.068426199
2.228739023,0.078201365,0.14662756,0.263929605,0.801564026,0.068426199
2.2091887,0.078201365,0.14662756,0.293255119,0.742913008,0.068426199
1.955034256,0.078201365,0.14662756,0.322580624,0.694037151,0.068426199
1.886608028,0.078201365,0.14662756,0.293255119,0.674486828,0.068426199
1.818181896,0.078201365,0.14662756,0.322580624,0.645161247,0.068426199
1.984359741,0.078201365,0.156402731,0.3030303,0.566959906,0.068426199
2.170088053,0.078201365,0.166177917,0.3030303,0.53763442,0.078201365
2.297165155,0.078201365,0.156402731,0.322580624,0.53763442,0.068426199
2.140762568,0.078201365,0.175953078,0.293255119,0.586510229,0.068426199
2.150537729,0.078201365,0.185728254,0.293255119,0.576735067,0.068426199
2.2091887,0.078201365,0.185728254,0.263929605,0.596285439,0.068426199
2.2091887,0.078201365,0.166177917,0.273704791,0.586510229,0.068426199
1.906158352,0.078201365,0.156402731,0.273704791,0.615835762,0.068426199
1.671554184,0.078201365,0.166177917,0.254154444,0.566959906,0.068426199
1.681329346,0.078201365,0.175953078,0.273704791,0.498533726,0.068426199
1.59335289,0.078201365,0.175953078,0.283479958,0.469208193,0.068426199
1.42717495,0.087976542,0.175953078,0.283479958,0.469208193,0.078201365
1.388074284,0.078201365,0.215053773,0.3030303,0.459433031,0.078201365
1.260997057,0.087976542,0.205278587,0.342130995,0.459433031,0.068426199
1.319648147,0.107526886,0.185728254,0.342130995,0.430107546,0.068426199
1.182795639,0.117302048,0.185728254,0.322580624,0.391006832,0.068426199
0.967741871,0.117302048,0.175953078,0.322580624,0.371456504,0.078201365
0.938416386,0.136852396,0.175953078,0.332355833,0.322580624,0.068426199
0.821114349,0.136852396,0.166177917,0.400782013,0.273704791,0.078201365
0.713587475,0.127077222,0.166177917,0.439882708,0.283479958,0.068426199
0.733137846,0.136852396,0.175953078,0.391006832,0.273704791,0.068426199
0.694037151,0.136852396,0.166177917,0.410557175,0.234604096,0.068426199
0.635386086,0.136852396,0.185728254,0.420332336,0.205278587,0.068426199
0.664711666,0.156402731,0.185728254,0.391006832,0.175953078,0.068426199
0.733137846,0.175953078,0.185728254,0.439882708,0.166177917,0.068426199
0.742913008,0.185728254,0.175953078,0.449657869,0.156402731,0.068426199
1.016617775,0.185728254,0.166177917,0.478983355,0.156402731,0.068426199
1.085044022,0.175953078,0.205278587,0.469208193,0.14662756,0.068426199
1.04594326,0.195503416,0.205278587,0.488758564,0.136852396,0.078201365
1.04594326,0.215053773,0.205278587,0.547409582,0.136852396,0.068426199
1.026392937,0.205278587,0.195503416,0.557184744,0.117302048,0.078201365
0.997067451,0.185728254,0.185728254,0.518084049,0.117302048,0.078201365
0.938416386,0.244379282,0.175953078,0.469208193,0.205278587,0.078201365
0.860215092,0.263929605,0.175953078,0.478983355,0.430107546,0.078201365
1.036168098,0.263929605,0.185728254,0.449657869,0.420332336,0.078201365
0.957966709,0.254154444,0.166177917,0.449657869,0.351906157,0.068426199
0.879765415,0.283479958,0.175953078,0.459433031,0.332355833,0.078201365
0.85043993,0.293255119,0.185728254,0.430107546,0.332355833,0.068426199
0.98729229,0.293255119,0.175953078,0.430107546,0.3030303,0.068426199
0.938416386,0.283479958,0.175953078,0.459433031,0.254154444,0.078201365
0.928641224,0.322580624,0.185728254,0.478983355,0.234604096,0.068426199
1.094819183,0.293255119,0.166177917,0.459433031,0.254154444,0.078201365
1.016617775,0.3030303,0.175953078,0.53763442,0.224828935,0.078201365
0.889540577,0.3030303,0.156402731,0.547409582,0.195503416,0.078201365
0.821114349,0.293255119,0.14662756,0.518084049,0.185728254,0.078201365
0.801564026,0.3030303,0.14662756,0.498533726,0.185728254,0.068426199
0.879765415,0.312805462,0.156402731,0.498533726,0.156402731,0.068426199
0.9090909,0.332355833,0.156402731,0.469208193,0.14662756,0.078201365
0.967741871,0.332355833,0.156402731,0.478983355,0.175953078,0.078201365
0.997067451,0.38123167,0.156402731,0.469208193,0.175953078,0.068426199
1.04594326,0.439882708,0.166177917,0.469208193,0.185728254,0.068426199
0.967741871,0.439882708,0.175953078,0.430107546,0.175953078,0.078201365
0.869990253,0.420332336,0.185728254,0.469208193,0.166177917,0.078201365
0.889540577,0.420332336,0.185728254,0.478983355,0.156402731,0.078201365
0.899315739,0.498533726,0.185728254,0.439882708,0.156402731,0.068426199
0.821114349,0.576735067,0.185728254,0.449657869,0.166177917,0.078201365
0.899315739,0.508308887,0.195503416,0.459433031,0.156402731,0.068426199
0.967741871,0.459433031,0.215053773,0.469208193,0.166177917,0.078201365
0.957966709,0.527859211,0.234604096,0.566959906,0.156402731,0.068426199
0.928641224,0.478983355,0.234604096,0.53763442,0.136852396,0.068426199
0.889540577,0.469208193,0.234604096,0.508308887,0.166177917,0.078201365
0.860215092,0.557184744,0.224828935,0.547409582,0.14662756,0.068426199
0.752688169,0.586510229,0.215053773,0.6060606,0.14662756,0.078201365
0.654936409,0.635386086,0.205278587,0.6060606,0.14662756,0.078201365
0.635386086,0.596285439,0.185728254,0.596285439,0.14662756,0.068426199
0.654936409,0.615835762,0.175953078,0.625610924,0.136852396,0.068426199
0.615835762,0.625610924,0.166177917,0.6060606,0.136852396,0.078201365
0.674486828,0.674486828,0.166177917,0.547409582,0.166177917,0.078201365
0.713587475,0.703812313,0.156402731,0.53763442,0.175953078,0.078201365
0.645161247,0.694037151,0.156402731,0.53763442,0.175953078,0.078201365
0.566959906,0.674486828,0.14662756,0.498533726,0.14662756,0.087976542
0.576735067,0.674486828,0.14662756,0.478983355,0.127077222,0.087976542
0.527859211,0.762463331,0.127077222,0.459433031,0.136852396,0.087976542
0.557184744,0.801564026,0.127077222,0.459433031,0.127077222,0.078201365
0.566959906,0.98729229,0.136852396,0.410557175,0.127077222,0.078201365
0.527859211,0.899315739,0.127077222,0.430107546,0.117302048,0.087976542
0.586510229,0.957966709,0.136852396,0.420332336,0.107526886,0.087976542
0.576735067,1.143694997,0.14662756,0.38123167,0.107526886,0.097751703
0.596285439,1.085044022,0.14662756,0.371456504,0.117302048,0.097751703
0.547409582,1.065493703,0.14662756,0.430107546,0.117302048,0.097751703
0.459433031,1.251221895,0.14662756,0.400782013,0.117302048,0.107526886
0.420332336,1.202346087,0.136852396,0.420332336,0.107526886,0.107526886
0.449657869,1.241446733,0.136852396,0.38123167,0.107526886,0.117302048
0.410557175,1.290322542,0.136852396,0.410557175,0.14662756,0.107526886
0.410557175,1.436950111,0.136852396,0.459433031,0.166177917,0.107526886
0.400782013,1.358748794,0.14662756,0.430107546,0.156402731,0.117302048
0.410557175,1.358748794,0.14662756,0.400782013,0.156402731,0.117302048
0.38123167,1.446725368,0.14662756,0.391006832,0.156402731,0.117302048
0.371456504,1.495601177,0.14662756,0.400782013,0.185728254,0.117302048
0.391006832,1.407624626,0.166177917,0.391006832,0.166177917,0.166177917
0.371456504,1.388074284,0.175953078,0.420332336,0.156402731,0.166177917
0.371456504,1.397849445,0.185728254,0.391006832,0.156402731,0.166177917
0.361681342,1.446725368,0.175953078,0.38123167,0.185728254,0.166177917
0.332355833,1.397849445,0.185728254,0.420332336,0.175953078,0.156402731
0.312805462,1.710654974,0.175953078,0.410557175,0.156402731,0.14662756
0.312805462,1.671554184,0.166177917,0.361681342,0.166177917,0.166177917
0.293255119,1.485826015,0.185728254,0.38123167,0.166177917,0.166177917
0.263929605,1.524926662,0.195503416,0.391006832,0.14662756,0.156402731
0.234604096,1.309872866,0.234604096,0.449657869,0.14662756,0.175953078
0.215053773,1.241446733,0.234604096,0.459433031,0.127077222,0.195503416
0.215053773,1.143694997,0.254154444,0.439882708,0.156402731,0.195503416
0.205278587,1.04594326,0.273704791,0.400782013,0.156402731,0.185728254
0.215053773,0.997067451,0.293255119,0.420332336,0.156402731,0.205278587
0.224828935,0.977517128,0.3030303,0.391006832,0.136852396,0.224828935
0.215053773,0.918866062,0.332355833,0.391006832,0.117302048,0.234604096
0.205278587,1.348973632,0.400782013,0.391006832,0.107526886,0.215053773
0.185728254,1.290322542,0.400782013,0.371456504,0.107526886,0.185728254
0.175953078,1.33919847,0.410557175,0.361681342,0.097751703,0.185728254
0.156402731,1.241446733,0.38123167,0.351906157,0.087976542,0.175953078
0.127077222,1.319648147,0.38123167,0.361681342,0.087976542,0.185728254
0.117302048,1.192570925,0.391006832,0.410557175,0.097751703,0.175953078
0.107526886,1.143694997,0.430107546,0.38123167,0.087976542,0.156402731
0.097751703,1.143694997,0.449657869,0.391006832,0.078201365,0.166177917
0.087976542,1.182795639,0.518084049,0.420332336,0.078201365,0.166177917
0.078201365,1.22189641,0.518084049,0.391006832,0.068426199,0.166177917
0.078201365,1.124144673,0.459433031,0.391006832,0.078201365,0.14662756
0.097751703,1.094819183,0.449657869,0.371456504,0.078201365,0.14662756
0.127077222,1.055718422,0.449657869,0.351906157,0.068426199,0.136852396
0.136852396,0.948191547,0.498533726,0.351906157,0.087976542,0.127077222
0.14662756,1.124144673,0.576735067,0.391006832,0.127077222,0.117302048
0.136852396,1.04594326,0.635386086,0.38123167,0.127077222,0.117302048
0.156402731,1.094819183,0.6060606,0.361681342,0.117302048,0.107526886
0.175953078,1.114369512,0.615835762,0.371456504,0.136852396,0.097751703
0.234604096,1.055718422,0.586510229,0.38123167,0.127077222,0.097751703
0.244379282,1.04594326,0.566959906,0.351906157,0.136852396,0.097751703
0.293255119,1.085044022,0.68426199,0.342130995,0.127077222,0.097751703
0.3030303,1.22189641,0.674486828,0.322580624,0.107526886,0.097751703
0.273704791,1.192570925,0.674486828,0.342130995,0.097751703,0.107526886
0.283479958,1.241446733,0.752688169,0.351906157,0.087976542,0.107526886
0.263929605,1.212121248,0.733137846,0.351906157,0.097751703,0.107526886
0.234604096,1.202346087,0.840664673,0.371456504,0.107526886,0.136852396
0.205278587,1.192570925,0.967741871,0.361681342,0.127077222,0.136852396
0.175953078,1.085044022,1.04594326,0.371456504,0.117302048,0.127077222
0.166177917,1.075268865,1.055718422,0.342130995,0.117302048,0.136852396
0.14662756,1.006842613,1.036168098,0.361681342,0.117302048,0.14662756
0.14662756,0.938416386,1.114369512,0.371456504,0.127077222,0.156402731
0.14662756,1.006842613,1.114369512,0.351906157,0.117302048,0.14662756
0.156402731,0.938416386,1.016617775,0.361681342,0.127077222,0.166177917
0.136852396,0.967741871,0.997067451,0.351906157,0.107526886,0.166177917
0.136852396,1.173020482,0.977517128,0.332355833,0.156402731,0.156402731
0.136852396,1.065493703,0.957966709,0.342130995,0.14662756,0.14662756
0.127077222,1.055718422,1.016617775,0.342130995,0.127077222,0.156402731
0.127077222,0.98729229,1.094819183,0.332355833,0.107526886,0.14662756
0.14662756,0.948191547,1.075268865,0.293255119,0.117302048,0.156402731
0.136852396,0.938416386,1.065493703,0.283479958,0.136852396,0.156402731
0.14662756,0.918866062,0.98729229,0.3030303,0.127077222,0.175953078
0.136852396,0.860215092,1.10459435,0.312805462,0.107526886,0.195503416
0.136852396,0.830889511,1.124144673,0.3030303,0.097751703,0.175953078
0.127077222,0.801564026,1.143694997,0.351906157,0.107526886,0.166177917
0.127077222,0.772238493,1.114369512,0.351906157,0.107526886,0.14662756
0.14662756,0.654936409,1.202346087,0.361681342,0.087976542,0.14662756
0.14662756,0.586510229,1.153470159,0.361681342,0.078201365,0.136852396
0.156402731,0.557184744,1.319648147,0.38123167,0.107526886,0.136852396
0.136852396,0.527859211,1.378299117,0.371456504,0.107526886,0.14662756
0.136852396,0.488758564,1.446725368,0.351906157,0.087976542,0.156402731
0.136852396,0.488758564,1.466275692,0.342130995,0.078201365,0.14662756
0.156402731,0.518084049,1.524926662,0.322580624,0.068426199,0.14662756
0.166177917,0.53763442,1.485826015,0.342130995,0.087976542,0.136852396
0.195503416,0.518084049,1.554252148,0.342130995,0.097751703,0.136852396
0.175953078,0.478983355,1.42717495,0.38123167,0.087976542,0.127077222
0.166177917,0.488758564,1.388074284,0.391006832,0.078201365,0.107526886
0.156402731,0.439882708,1.407624626,0.371456504,0.078201365,0.117302048
0.166177917,0.430107546,1.407624626,0.371456504,0.107526886,0.107526886
0.166177917,0.547409582,1.319648147,0.371456504,0.087976542,0.097751703
0.14662756,0.527859211,1.378299117,0.342130995,0.087976542,0.087976542
0.136852396,0.527859211,1.417399788,0.332355833,0.087976542,0.097751703
0.127077222,0.518084049,1.485826015,0.3030303,0.078201365,0.107526886
0.127077222,0.469208193,1.524926662,0.3030303,0.078201365,0.117302048
0.127077222,0.420332336,1.65200386,0.332355833,0.068426199,0.107526886
0.14662756,0.38123167,1.554252148,0.293255119,0.068426199,0.107526886
0.136852396,0.38123167,1.661779022,0.293255119,0.078201365,0.107526886
0.156402731,0.430107546,1.564027309,0.273704791,0.087976542,0.107526886
0.14662756,0.400782013,1.388074284,0.283479958,0.087976542,0.117302048
0.136852396,0.351906157,1.65200386,0.342130995,0.087976542,0.117302048
0.14662756,0.332355833,1.564027309,0.38123167,0.087976542,0.107526886
0.136852396,0.332355833,1.42717495,0.391006832,0.078201365,0.097751703
0.127077222,0.312805462,1.417399788,0.420332336,0.078201365,0.097751703
0.127077222,0.273704791,1.779081106,0.478983355,0.087976542,0.087976542
0.117302048,0.293255119,1.749755621,0.459433031,0.107526886,0.087976542
0.127077222,0.263929605,1.573802567,0.420332336,0.136852396,0.087976542
0.136852396,0.254154444,1.505376339,0.400782013,0.127077222,0.087976542
0.127077222,0.234604096,1.544476986,0.371456504,0.117302048,0.078201365
0.117302048,0.234604096,1.45650053,0.410557175,0.127077222,0.078201365
0.107526886,0.215053773,1.407624626,0.420332336,0.136852396,0.078201365
0.107526886,0.215053773,1.231671572,0.400782013,0.117302048,0.068426199
0.127077222,0.205278587,1.085044022,0.498533726,0.107526886,0.068426199
0.136852396,0.215053773,1.036168098,0.576735067,0.097751703,0.068426199
0.127077222,0.215053773,0.918866062,0.566959906,0.107526886,0.068426199
0.117302048,0.224828935,0.772238493,0.586510229,0.107526886,0.068426199
0.127077222,0.195503416,0.664711666,0.615835762,0.097751703,0.068426199
0.127077222,0.195503416,0.713587475,0.576735067,0.097751703,0.058651023
0.127077222,0.205278587,0.713587475,0.596285439,0.097751703,0.058651023
0.127077222,0.175953078,0.723362684,0.703812313,0.087976542,0.078201365
0.127077222,0.14662756,0.674486828,0.772238493,0.107526886,0.078201365
0.127077222,0.127077222,0.674486828,0.703812313,0.107526886,0.078201365
0.14662756,0.107526886,0.674486828,0.68426199,0.097751703,0.097751703
0.14662756,0.087976542,0.586510229,0.654936409,0.097751703,0.078201365
0.136852396,0.097751703,0.508308887,0.615835762,0.087976542,0.097751703
0.136852396,0.087976542,0.478983355,0.625610924,0.078201365,0.097751703
0.14662756,0.087976542,0.469208193,0.635386086,0.087976542,0.087976542
0.14662756,0.097751703,0.391006832,0.733137846,0.087976542,0.078201365
0.14662756,0.087976542,0.332355833,0.674486828,0.087976542,0.068426199
0.156402731,0.107526886,0.351906157,0.694037151,0.087976542,0.068426199
0.156402731,0.107526886,0.322580624,0.713587475,0.087976542,0.068426199
0.156402731,0.117302048,0.293255119,0.733137846,0.078201365,0.068426199
0.156402731,0.107526886,0.263929605,0.899315739,0.078201365,0.068426199
0.166177917,0.107526886,0.254154444,0.860215092,0.078201365,0.068426199
0.14662756,0.097751703,0.224828935,0.9090909,0.097751703,0.068426199
0.156402731,0.097751703,0.215053773,0.997067451,0.087976542,0.058651023
0.14662756,0.107526886,0.205278587,0.928641224,0.107526886,0.068426199
0.14662756,0.107526886,0.234604096,0.918866062,0.107526886,0.078201365
0.136852396,0.097751703,0.205278587,0.977517128,0.107526886,0.078201365
0.136852396,0.097751703,0.205278587,0.997067451,0.107526886,0.087976542
0.136852396,0.087976542,0.234604096,0.948191547,0.117302048,0.087976542
0.14662756,0.097751703,0.254154444,1.006842613,0.127077222,0.078201365
0.14662756,0.087976542,0.3030303,0.957966709,0.117302048,0.078201365
0.14662756,0.087976542,0.3030303,1.016617775,0.107526886,0.068426199
0.14662756,0.087976542,0.351906157,0.967741871,0.107526886,0.068426199
0.136852396,0.087976542,0.332355833,0.928641224,0.136852396,0.068426199
0.14662756,0.087976542,0.400782013,0.879765415,0.127077222,0.068426199
0.156402731,0.087976542,0.449657869,0.948191547,0.117302048,0.068426199
0.195503416,0.087976542,0.547409582,0.967741871,0.107526886,0.068426199
0.185728254,0.087976542,0.68426199,0.889540577,0.107526886,0.068426199
0.175953078,0.087976542,0.733137846,0.811339188,0.107526886,0.068426199
0.14662756,0.087976542,0.752688169,0.860215092,0.127077222,0.068426199
0.14662756,0.087976542,0.811339188,0.869990253,0.127077222,0.068426199
0.156402731,0.078201365,0.860215092,0.957966709,0.107526886,0.068426199
0.156402731,0.097751703,0.957966709,1.202346087,0.097751703,0.068426199
0.136852396,0.087976542,0.957966709,1.114369512,0.087976542,0.068426199
0.136852396,0.087976542,0.957966709,1.10459435,0.087976542,0.068426199
0.156402731,0.087976542,1.026392937,1.006842613,0.097751703,0.068426199
0.14662756,0.087976542,1.026392937,0.938416386,0.097751703,0.078201365
0.14662756,0.097751703,0.938416386,1.04594326,0.087976542,0.068426199
0.14662756,0.097751703,0.997067451,1.026392937,0.107526886,0.068426199
0.14662756,0.097751703,0.967741871,0.997067451,0.097751703,0.068426199
0.14662756,0.097751703,0.9090909,1.055718422,0.107526886,0.068426199
0.166177917,0.107526886,0.9090909,0.997067451,0.087976542,0.068426199
0.14662756,0.107526886,0.967741871,1.133919835,0.087976542,0.068426199
0.14662756,0.097751703,1.04594326,1.133919835,0.097751703,0.068426199
0.14662756,0.097751703,0.967741871,1.202346087,0.107526886,0.068426199
0.156402731,0.097751703,0.957966709,1.10459435,0.127077222,0.068426199
0.14662756,0.087976542,0.997067451,0.997067451,0.117302048,0.078201365
0.14662756,0.097751703,0.948191547,1.04594326,0.117302048,0.068426199
0.14662756,0.097751703,0.977517128,1.055718422,0.107526886,0.068426199
0.156402731,0.107526886,1.026392937,1.016617775,0.097751703,0.068426199
0.136852396,0.107526886,0.9090909,1.036168098,0.087976542,0.068426199
0.156402731,0.107526886,0.811339188,0.938416386,0.087976542,0.068426199
0.14662756,0.107526886,0.811339188,1.085044022,0.087976542,0.068426199
0.136852396,0.097751703,0.85043993,1.055718422,0.097751703,0.068426199
0.14662756,0.107526886,0.811339188,1.006842613,0.087976542,0.068426199
0.136852396,0.107526886,0.889540577,0.928641224,0.087976542,0.068426199
0.127077222,0.107526886,0.860215092,0.860215092,0.097751703,0.068426199
0.136852396,0.107526886,0.869990253,1.04594326,0.097751703,0.068426199
0.136852396,0.097751703,0.821114349,1.114369512,0.097751703,0.068426199
0.14662756,0.097751703,0.821114349,1.094819183,0.078201365,0.068426199
0.136852396,0.097751703,0.85043993,1.124144673,0.078201365,0.068426199
0.127077222,0.087976542,0.85043993,1.006842613,0.078201365,0.068426199
0.136852396,0.087976542,0.811339188,1.006842613,0.087976542,0.078201365
0.136852396,0.097751703,0.772238493,1.055718422,0.087976542,0.078201365
0.117302048,0.087976542,0.782013655,1.133919835,0.097751703,0.078201365
0.127077222,0.087976542,0.782013655,1.133919835,0.127077222,0.087976542
0.117302048,0.087976542,0.752688169,1.085044022,0.127077222,0.078201365
0.117302048,0.078201365,0.762463331,1.173020482,0.136852396,0.068426199
0.127077222,0.087976542,0.723362684,1.124144673,0.127077222,0.068426199
0.127077222,0.087976542,0.723362684,1.202346087,0.107526886,0.068426199
0.136852396,0.078201365,0.664711666,1.33919847,0.097751703,0.068426199
0.136852396,0.078201365,0.635386086,1.45650053,0.107526886,0.078201365
0.127077222,0.087976542,0.6060606,1.476050854,0.117302048,0.068426199
0.117302048,0.087976542,0.576735067,1.515151501,0.117302048,0.068426199
0.127077222,0.087976542,0.645161247,1.348973632,0.107526886,0.078201365
0.127077222,0.087976542,0.615835762,1.251221895,0.097751703,0.087976542
0.107526886,0.087976542,0.586510229,1.173020482,0.097751703,0.078201365
0.107526886,0.078201365,0.664711666,1.319648147,0.087976542,0.078201365
0.117302048,0.087976542,0.68426199,1.231671572,0.078201365,0.068426199
0.117302048,0.087976542,0.664711666,1.251221895,0.078201365,0.078201365
0.117302048,0.097751703,0.645161247,1.260997057,0.087976542,0.068426199
0.117302048,0.087976542,0.596285439,1.143694997,0.087976542,0.068426199
0.117302048,0.087976542,0.576735067,1.04594326,0.107526886,0.068426199
0.117302048,0.097751703,0.557184744,0.928641224,0.117302048,0.068426199
0.117302048,0.097751703,0.518084049,1.055718422,0.127077222,0.078201365
0.107526886,0.097751703,0.547409582,1.075268865,0.117302048,0.078201365
0.117302048,0.097751703,0.508308887,1.055718422,0.127077222,0.078201365
0.107526886,0.097751703,0.488758564,1.133919835,0.117302048,0.078201365
0.107526886,0.107526886,0.478983355,1.094819183,0.107526886,0.078201365
0.107526886,0.097751703,0.488758564,1.309872866,0.107526886,0.068426199
0.107526886,0.087976542,0.449657869,1.476050854,0.087976542,0.078201365
0.107526886,0.097751703,0.410557175,1.583577728,0.087976542,0.068426199
0.097751703,0.097751703,0.391006832,1.378299117,0.097751703,0.068426199
0.097751703,0.097751703,0.371456504,1.358748794,0.107526886,0.068426199
0.107526886,0.087976542,0.342130995,1.348973632,0.117302048,0.068426199
0.107526886,0.087976542,0.3030303,1.348973632,0.107526886,0.068426199
0.107526886,0.087976542,0.351906157,1.329423308,0.117302048,0.078201365
0.107526886,0.087976542,0.342130995,1.251221895,0.14662756,0.078201365
0.107526886,0.087976542,0.312805462,1.192570925,0.175953078,0.078201365
0.107526886,0.078201365,0.322580624,1.114369512,0.175953078,0.068426199
0.117302048,0.078201365,0.342130995,0.997067451,0.215053773,0.078201365
0.117302048,0.078201365,0.293255119,0.860215092,0.195503416,0.068426199
0.097751703,0.078201365,0.293255119,0.811339188,0.263929605,0.068426199
0.087976542,0.078201365,0.273704791,0.742913008,0.283479958,0.068426199
0.087976542,0.078201365,0.254154444,0.645161247,0.3030303,0.068426199
0.078201365,0.078201365,0.234604096,0.557184744,0.312805462,0.078201365
0.107526886,0.068426199,0.215053773,0.459433031,0.3030303,0.068426199
0.117302048,0.078201365,0.234604096,0.410557175,0.351906157,0.068426199
0.117302048,0.078201365,0.224828935,0.351906157,0.430107546,0.068426199
0.117302048,0.068426199,0.234604096,0.342130995,0.420332336,0.068426199
0.127077222,0.068426199,0.254154444,0.322580624,0.439882708,0.078201365
0.136852396,0.068426199,0.263929605,0.293255119,0.400782013,0.078201365
0.136852396,0.068426199,0.244379282,0.263929605,0.439882708,0.078201365
0.136852396,0.068426199,0.224828935,0.224828935,0.498533726,0.078201365
0.127077222,0.068426199,0.205278587,0.224828935,0.478983355,0.078201365
0.107526886,0.068426199,0.195503416,0.205278587,0.498533726,0.078201365
0.127077222,0.068426199,0.195503416,0.185728254,0.488758564,0.078201365
0.127077222,0.068426199,0.195503416,0.195503416,0.478983355,0.078201365
0.127077222,0.068426199,0.185728254,0.215053773,0.527859211,0.068426199
0.136852396,0.058651023,0.195503416,0.215053773,0.53763442,0.078201365
0.127077222,0.068426199,0.195503416,0.205278587,0.53763442,0.078201365
0.127077222,0.068426199,0.205278587,0.224828935,0.6060606,0.068426199
0.127077222,0.068426199,0.205278587,0.273704791,0.645161247,0.068426199
0.127077222,0.068426199,0.195503416,0.312805462,0.6060606,0.068426199
0.097751703,0.058651023,0.195503416,0.283479958,0.703812313,0.078201365
0.087976542,0.068426199,0.185728254,0.283479958,0.723362684,0.068426199
0.078201365,0.068426199,0.175953078,0.283479958,0.801564026,0.078201365
0.087976542,0.087976542,0.166177917,0.254154444,0.918866062,0.078201365
0.087976542,0.078201365,0.175953078,0.254154444,0.957966709,0.068426199
0.078201365,0.078201365,0.185728254,0.3030303,0.938416386,0.078201365
0.097751703,0.078201365,0.175953078,0.351906157,1.094819183,0.068426199
0.087976542,0.078201365,0.156402731,0.400782013,1.075268865,0.068426199
0.087976542,0.087976542,0.156402731,0.400782013,1.173020482,0.068426199
0.117302048,0.097751703,0.175953078,0.371456504,1.378299117,0.068426199
0.127077222,0.087976542,0.175953078,0.478983355,1.319648147,0.068426199
0.117302048,0.087976542,0.175953078,0.586510229,1.397849445,0.068426199
0.117302048,0.087976542,0.175953078,0.713587475,1.319648147,0.068426199
0.107526886,0.087976542,0.175953078,0.811339188,1.348973632,0.068426199
0.107526886,0.087976542,0.175953078,0.840664673,1.495601177,0.068426199
0.097751703,0.087976542,0.185728254,0.713587475,1.407624626,0.068426199
0.097751703,0.087976542,0.185728254,0.733137846,1.876832867,0.068426199
0.097751703,0.087976542,0.185728254,0.694037151,1.818181896,0.058651023
0.087976542,0.087976542,0.175953078,0.654936409,2.043010712,0.068426199
0.087976542,0.078201365,0.185728254,0.615835762,2.03323555,0.068426199
0.097751703,0.068426199,0.195503416,0.615835762,2.003910065,0.068426199
0.127077222,0.068426199,0.175953078,0.596285439,1.935483837,0.068426199
0.127077222,0.068426199,0.166177917,0.664711666,1.876832867,0.068426199
0.117302048,0.078201365,0.166177917,0.68426199,2.140762568,0.068426199
0.127077222,0.078201365,0.185728254,0.645161247,2.238514185,0.068426199
0.127077222,0.078201365,0.195503416,0.752688169,2.111436844,0.078201365
0.136852396,0.078201365,0.185728254,0.948191547,1.984359741,0.097751703
0.117302048,0.078201365,0.175953078,1.827957058,2.003910065,0.087976542
0.097751703,0.078201365,0.185728254,1.710654974,2.414467335,0.078201365
0.117302048,0.078201365,0.175953078,1.505376339,2.639296293,0.087976542
0.097751703,0.078201365,0.175953078,1.632453537,2.697947264,0.097751703
0.087976542,0.078201365,0.175953078,1.65200386,2.825024414,0.087976542
0.107526886,0.078201365,0.185728254,1.769305944,3.02052784,0.078201365
0.117302048,0.078201365,0.215053773,1.700879812,3.245356798,0.078201365
0.107526886,0.078201365,0.215053773,1.603128052,3.382209301,0.068426199
0.097751703,0.078201365,0.205278587,1.42717495,3.186705828,0.068426199
0.097751703,0.078201365,0.205278587,1.329423308,3.040078163,0.058651023
0.107526886,0.078201365,0.195503416,1.241446733,3.225806475,0.058651023
0.117302048,0.087976542,0.185728254,1.153470159,3.088953972,0.058651023
0.107526886,0.078201365,0.205278587,1.10459435,2.932551384,0.068426199
0.107526886,0.078201365,0.215053773,1.133919835,2.873900223,0.068426199
0.097751703,0.078201365,0.215053773,1.036168098,2.561094761,0.068426199
0.097751703,0.087976542,0.215053773,0.967741871,2.355816126,0.068426199
0.097751703,0.078201365,0.224828935,1.036168098,2.394917011,0.068426199
0.087976542,0.078201365,0.254154444,0.977517128,2.238514185,0.078201365
0.097751703,0.087976542,0.244379282,0.918866062,2.316715479,0.078201365
0.127077222,0.087976542,0.244379282,0.860215092,2.140762568,0.078201365
0.136852396,0.087976542,0.254154444,0.869990253,1.857282543,0.078201365
0.117302048,0.087976542,0.283479958,0.791788864,2.023460388,0.078201365
0.136852396,0.078201365,0.263929605,0.713587475,1.808406639,0.078201365
0.166177917,0.078201365,0.263929605,0.674486828,1.564027309,0.078201365
0.166177917,0.078201365,0.244379282,0.664711666,1.397849445,0.078201365
0.166177917,0.078201365,0.234604096,0.694037151,1.260997057,0.078201365
0.166177917,0.087976542,0.224828935,0.654936409,1.075268865,0.068426199
0.156402731,0.087976542,0.215053773,0.713587475,0.899315739,0.068426199
0.195503416,0.078201365,0.224828935,0.703812313,0.752688169,0.068426199
0.185728254,0.068426199,0.254154444,0.733137846,0.654936409,0.068426199
0.185728254,0.078201365,0.234604096,0.782013655,0.566959906,0.068426199
0.195503416,0.087976542,0.224828935,0.703812313,0.469208193,0.068426199
0.195503416,0.087976542,0.224828935,0.645161247,0.459433031,0.068426199
0.283479958,0.078201365,0.215053773,0.68426199,0.449657869,0.068426199
0.263929605,0.087976542,0.215053773,0.674486828,0.459433031,0.068426199
0.293255119,0.087976542,0.185728254,0.664711666,0.459433031,0.068426199
0.263929605,0.087976542,0.185728254,0.645161247,0.488758564,0.068426199
0.332355833,0.087976542,0.185728254,0.821114349,0.469208193,0.068426199
0.342130995,0.087976542,0.175953078,0.742913008,0.400782013,0.068426199
0.342130995,0.078201365,0.185728254,0.635386086,0.38123167,0.078201365
0.312805462,0.087976542,0.195503416,0.586510229,0.566959906,0.078201365
0.361681342,0.078201365,0.195503416,0.576735067,0.53763442,0.097751703
0.361681342,0.078201365,0.185728254,0.547409582,0.772238493,0.107526886
0.342130995,0.078201365,0.166177917,0.527859211,0.713587475,0.107526886
0.342130995,0.078201365,0.175953078,0.518084049,0.762463331,0.107526886
0.322580624,0.078201365,0.175953078,0.518084049,0.68426199,0.097751703
0.322580624,0.078201365,0.166177917,0.53763442,0.654936409,0.107526886
0.391006832,0.078201365,0.175953078,0.508308887,0.645161247,0.117302048
0.420332336,0.087976542,0.166177917,0.527859211,0.596285439,0.117302048
0.469208193,0.087976542,0.156402731,0.576735067,0.635386086,0.127077222
0.518084049,0.087976542,0.14662756,0.596285439,0.674486828,0.166177917
0.586510229,0.087976542,0.136852396,0.635386086,0.654936409,0.195503416
0.6060606,0.087976542,0.156402731,0.596285439,0.615835762,0.244379282
0.625610924,0.087976542,0.166177917,0.527859211,0.791788864,0.263929605
0.6060606,0.087976542,0.156402731,0.508308887,0.772238493,0.3030303
0.625610924,0.087976542,0.166177917,0.518084049,0.713587475,0.361681342
0.782013655,0.087976542,0.185728254,0.488758564,0.830889511,0.332355833
0.762463331,0.097751703,0.185728254,0.459433031,0.830889511,0.3030303
0.811339188,0.097751703,0.185728254,0.449657869,0.723362684,0.283479958
0.918866062,0.097751703,0.185728254,0.439882708,0.713587475,0.3030303
0.860215092,0.097751703,0.175953078,0.420332336,0.645161247,0.3030303
0.811339188,0.087976542,0.175953078,0.391006832,0.733137846,0.273704791
0.752688169,0.097751703,0.175953078,0.371456504,0.733137846,0.244379282
0.899315739,0.087976542,0.195503416,0.410557175,0.791788864,0.215053773
1.10459435,0.097751703,0.185728254,0.420332336,0.772238493,0.185728254
1.202346087,0.097751703,0.185728254,0.371456504,0.782013655,0.175953078
1.65200386,0.107526886,0.185728254,0.38123167,0.811339188,0.175953078
1.45650053,0.097751703,0.195503416,0.430107546,0.889540577,0.156402731
1.446725368,0.107526886,0.205278587,0.420332336,0.957966709,0.136852396
1.544476986,0.117302048,0.185728254,0.400782013,0.918866062,0.117302048
1.446725368,0.107526886,0.175953078,0.371456504,0.889540577,0.107526886
1.505376339,0.107526886,0.166177917,0.361681342,0.938416386,0.136852396
1.495601177,0.107526886,0.185728254,0.439882708,0.879765415,0.14662756
1.759530783,0.107526886,0.175953078,0.391006832,0.85043993,0.117302048
1.876832867,0.117302048,0.185728254,0.420332336,0.879765415,0.117302048
2.121212006,0.117302048,0.185728254,0.410557175,0.782013655,0.107526886
2.09188652,0.127077222,0.185728254,0.38123167,0.703812313,0.136852396
2.023460388,0.127077222,0.185728254,0.459433031,0.713587475,0.14662756
2.101661682,0.136852396,0.175953078,0.53763442,0.762463331,0.14662756
2.189638376,0.127077222,0.175953078,0.557184744,0.782013655,0.136852396
2.375366449,0.136852396,0.175953078,0.488758564,0.723362684,0.136852396
2.38514185,0.136852396,0.166177917,0.459433031,0.674486828,0.117302048
2.2091887,0.136852396,0.166177917,0.430107546,0.635386086,0.097751703
2.258064508,0.14662756,0.166177917,0.391006832,0.547409582,0.107526886
2.414467335,0.156402731,0.156402731,0.400782013,0.635386086,0.107526886
2.434017658,0.175953078,0.156402731,0.371456504,0.615835762,0.097751703
2.531769276,0.185728254,0.175953078,0.342130995,0.566959906,0.107526886
2.834799576,0.175953078,0.195503416,0.38123167,0.547409582,0.14662756
2.756598234,0.156402731,0.195503416,0.371456504,0.498533726,0.136852396
2.717497587,0.166177917,0.195503416,0.351906157,0.518084049,0.127077222
2.639296293,0.166177917,0.195503416,0.351906157,0.469208193,0.14662756
2.580645084,0.175953078,0.195503416,0.38123167,0.430107546,0.14662756
2.375366449,0.215053773,0.175953078,0.332355833,0.391006832,0.166177917
2.277614832,0.205278587,0.166177917,0.351906157,0.351906157,0.175953078
2.130987406,0.244379282,0.166177917,0.322580624,0.351906157,0.166177917
1.925708675,0.244379282,0.175953078,0.3030303,0.332355833,0.156402731
1.867057705,0.254154444,0.166177917,0.3030303,0.351906157,0.136852396
1.749755621,0.254154444,0.175953078,0.293255119,0.391006832,0.117302048
1.573802567,0.244379282,0.166177917,0.273704791,0.361681342,0.107526886
1.388074284,0.283479958,0.185728254,0.312805462,0.351906157,0.107526886
1.329423308,0.332355833,0.175953078,0.371456504,0.332355833,0.127077222
1.241446733,0.351906157,0.185728254,0.449657869,0.322580624,0.107526886
1.10459435,0.371456504,0.185728254,0.478983355,0.3030303,0.097751703
0.948191547,0.459433031,0.195503416,0.439882708,0.293255119,0.097751703
0.948191547,0.469208193,0.185728254,0.38123167,0.273704791,0.107526886
0.889540577,0.459433031,0.185728254,0.391006832,0.263929605,0.097751703
0.85043993,0.518084049,0.175953078,0.391006832,0.244379282,0.087976542
0.762463331,0.518084049,0.185728254,0.361681342,0.244379282,0.078201365
0.703812313,0.557184744,0.175953078,0.322580624,0.205278587,0.068426199
0.645161247,0.596285439,0.175953078,0.322580624,0.185728254,0.058651023
0.625610924,0.547409582,0.175953078,0.283479958,0.185728254,0.058651023
0.645161247,0.547409582,0.185728254,0.244379282,0.166177917,0.058651023
0.645161247,0.508308887,0.195503416,0.254154444,0.156402731,0.068426199
0.635386086,0.576735067,0.166177917,0.244379282,0.136852396,0.078201365
0.664711666,0.6060606,0.185728254,0.244379282,0.136852396,0.078201365
0.635386086,0.635386086,0.166177917,0.254154444,0.127077222,0.078201365
0.625610924,0.694037151,0.166177917,0.263929605,0.117302048,0.068426199
0.615835762,0.674486828,0.166177917,0.263929605,0.107526886,0.068426199
0.625610924,0.703812313,0.156402731,0.283479958,0.107526886,0.078201365
0.694037151,0.694037151,0.175953078,0.332355833,0.117302048,0.068426199
0.723362684,0.742913008,0.175953078,0.342130995,0.127077222,0.068426199
0.830889511,0.664711666,0.185728254,0.332355833,0.107526886,0.068426199
0.791788864,0.654936409,0.195503416,0.332355833,0.107526886,0.068426199
0.723362684,0.674486828,0.215053773,0.3030303,0.107526886,0.078201365
0.713587475,0.713587475,0.215053773,0.293255119,0.166177917,0.078201365
0.782013655,0.674486828,0.215053773,0.293255119,0.14662756,0.078201365
0.811339188,0.889540577,0.195503416,0.283479958,0.166177917,0.068426199
0.762463331,0.948191547,0.185728254,0.273704791,0.156402731,0.058651023
0.918866062,1.016617775,0.175953078,0.254154444,0.136852396,0.058651023
1.016617775,1.075268865,0.166177917,0.254154444,0.117302048,0.058651023
1.006842613,1.202346087,0.166177917,0.234604096,0.097751703,0.068426199
0.997067451,1.212121248,0.156402731,0.224828935,0.087976542,0.068426199
1.114369512,1.28054738,0.14662756,0.224828935,0.087976542,0.068426199
1.10459435,1.290322542,0.14662756,0.205278587,0.087976542,0.068426199
1.114369512,1.212121248,0.136852396,0.215053773,0.078201365,0.068426199
1.055718422,1.231671572,0.136852396,0.234604096,0.078201365,0.068426199
0.98729229,1.16324532,0.156402731,0.254154444,0.087976542,0.068426199
1.04594326,1.436950111,0.14662756,0.244379282,0.097751703,0.068426199
1.10459435,1.681329346,0.14662756,0.254154444,0.087976542,0.068426199
1.026392937,1.769305944,0.14662756,0.254154444,0.097751703,0.078201365
1.055718422,1.671554184,0.156402731,0.273704791,0.117302048,0.068426199
0.977517128,1.661779022,0.175953078,0.263929605,0.117302048,0.068426199
0.9090909,1.622678375,0.175953078,0.263929605,0.107526886,0.068426199
0.928641224,1.671554184,0.185728254,0.244379282,0.097751703,0.068426199
1.016617775,1.59335289,0.185728254,0.254154444,0.107526886,0.068426199
1.006842613,1.515151501,0.205278587,0.244379282,0.107526886,0.068426199
1.036168098,1.466275692,0.215053773,0.215053773,0.107526886,0.068426199
1.016617775,1.42717495,0.215053773,0.234604096,0.097751703,0.068426199
0.928641224,1.534701824,0.205278587,0.224828935,0.097751703,0.068426199
0.997067451,1.534701824,0.205278587,0.224828935,0.107526886,0.068426199
1.065493703,1.495601177,0.205278587,0.215053773,0.107526886,0.068426199
1.006842613,1.42717495,0.205278587,0.224828935,0.107526886,0.068426199
1.085044022,1.22189641,0.215053773,0.244379282,0.097751703,0.068426199
1.006842613,1.055718422,0.215053773,0.224828935,0.097751703,0.068426199
0.967741871,1.026392937,0.205278587,0.215053773,0.107526886,0.068426199
0.889540577,1.006842613,0.195503416,0.224828935,0.097751703,0.068426199
0.840664673,0.957966709,0.185728254,0.215053773,0.107526886,0.068426199
0.869990253,0.869990253,0.175953078,0.215053773,0.107526886,0.078201365
0.791788864,0.889540577,0.156402731,0.205278587,0.107526886,0.068426199
0.782013655,0.869990253,0.156402731,0.224828935,0.107526886,0.068426199
0.899315739,0.85043993,0.14662756,0.234604096,0.107526886,0.068426199
0.830889511,0.772238493,0.14662756,0.224828935,0.107526886,0.068426199
0.733137846,0.723362684,0.166177917,0.244379282,0.097751703,0.068426199
0.782013655,0.6060606,0.156402731,0.263929605,0.078201365,0.068426199
0.713587475,0.527859211,0.156402731,0.273704791,0.117302048,0.068426199
0.762463331,0.459433031,0.14662756,0.263929605,0.107526886,0.068426199
0.869990253,0.459433031,0.14662756,0.254154444,0.107526886,0.068426199
0.918866062,0.439882708,0.136852396,0.254154444,0.107526886,0.068426199
0.830889511,0.391006832,0.14662756,0.244379282,0.107526886,0.068426199
0.762463331,0.420332336,0.156402731,0.224828935,0.107526886,0.078201365
0.733137846,0.38123167,0.156402731,0.224828935,0.097751703,0.068426199
0.772238493,0.332355833,0.166177917,0.224828935,0.097751703,0.068426199
0.752688169,0.351906157,0.14662756,0.215053773,0.087976542,0.058651023
0.742913008,0.38123167,0.14662756,0.205278587,0.097751703,0.058651023
0.791788864,0.351906157,0.136852396,0.195503416,0.097751703,0.058651023
0.713587475,0.371456504,0.14662756,0.195503416,0.097751703,0.068426199
0.645161247,0.342130995,0.14662756,0.185728254,0.097751703,0.068426199
0.68426199,0.391006832,0.136852396,0.195503416,0.107526886,0.068426199
0.733137846,0.469208193,0.136852396,0.195503416,0.097751703,0.068426199
0.664711666,0.430107546,0.136852396,0.175953078,0.107526886,0.078201365
0.596285439,0.449657869,0.136852396,0.195503416,0.107526886,0.068426199
0.654936409,0.488758564,0.14662756,0.215053773,0.097751703,0.068426199
0.654936409,0.557184744,0.156402731,0.215053773,0.097751703,0.058651023
0.596285439,0.625610924,0.156402731,0.215053773,0.107526886,0.068426199
0.518084049,0.625610924,0.166177917,0.215053773,0.117302048,0.078201365
0.478983355,0.586510229,0.175953078,0.244379282,0.107526886,0.087976542
0.518084049,0.6060606,0.156402731,0.234604096,0.117302048,0.097751703
0.478983355,0.557184744,0.14662756,0.224828935,0.117302048,0.087976542
0.439882708,0.527859211,0.14662756,0.234604096,0.117302048,0.078201365
0.488758564,0.6060606,0.156402731,0.254154444,0.107526886,0.078201365
0.459433031,0.654936409,0.14662756,0.254154444,0.097751703,0.078201365
0.420332336,0.654936409,0.156402731,0.273704791,0.224828935,0.068426199
0.410557175,0.635386086,0.166177917,0.293255119,0.254154444,0.068426199
0.361681342,0.694037151,0.185728254,0.3030303,0.283479958,0.078201365
0.342130995,0.674486828,0.205278587,0.3030303,0.273704791,0.068426199
0.293255119,0.635386086,0.234604096,0.3030303,0.254154444,0.068426199
0.3030303,0.576735067,0.224828935,0.322580624,0.215053773,0.078201365
0.273704791,0.645161247,0.224828935,0.332355833,0.195503416,0.078201365
0.263929605,0.713587475,0.244379282,0.312805462,0.205278587,0.068426199
0.244379282,0.694037151,0.273704791,0.322580624,0.185728254,0.058651023
0.224828935,0.811339188,0.293255119,0.332355833,0.166177917,0.068426199
0.205278587,0.723362684,0.322580624,0.361681342,0.136852396,0.068426199
0.185728254,0.68426199,0.342130995,0.361681342,0.136852396,0.068426199
0.175953078,0.713587475,0.342130995,0.371456504,0.136852396,0.068426199
0.185728254,0.694037151,0.332355833,0.371456504,0.156402731,0.068426199
0.205278587,0.723362684,0.332355833,0.371456504,0.14662756,0.078201365
0.195503416,0.723362684,0.342130995,0.38123167,0.127077222,0.078201365
0.185728254,0.654936409,0.391006832,0.361681342,0.107526886,0.078201365
0.175953078,0.694037151,0.439882708,0.332355833,0.107526886,0.078201365
0.166177917,0.742913008,0.449657869,0.322580624,0.127077222,0.068426199
0.156402731,0.752688169,0.449657869,0.342130995,0.107526886,0.068426199
0.136852396,0.948191547,0.449657869,0.342130995,0.097751703,0.068426199
0.136852396,0.997067451,0.498533726,0.332355833,0.107526886,0.068426199
0.127077222,0.899315739,0.508308887,0.3030303,0.097751703,0.068426199
0.136852396,0.811339188,0.547409582,0.322580624,0.087976542,0.068426199
0.14662756,0.713587475,0.586510229,0.3030303,0.087976542,0.078201365
0.14662756,0.762463331,0.645161247,0.342130995,0.097751703,0.068426199
0.14662756,0.879765415,0.586510229,0.332355833,0.107526886,0.068426199
0.136852396,0.889540577,0.508308887,0.371456504,0.097751703,0.078201365
0.14662756,1.173020482,0.635386086,0.361681342,0.087976542,0.068426199
0.166177917,1.10459435,0.752688169,0.371456504,0.087976542,0.068426199
0.166177917,1.094819183,0.703812313,0.332355833,0.107526886,0.068426199
0.166177917,0.957966709,0.782013655,0.3030303,0.156402731,0.078201365
0.156402731,0.948191547,0.791788864,0.3030303,0.166177917,0.078201365
0.14662756,0.9090909,0.821114349,0.3030303,0.14662756,0.078201365
0.136852396,0.889540577,0.9090909,0.332355833,0.127077222,0.068426199
0.117302048,0.811339188,0.928641224,0.293255119,0.107526886,0.068426199
0.097751703,0.938416386,0.879765415,0.283479958,0.117302048,0.068426199
0.078201365,0.928641224,0.772238493,0.312805462,0.136852396,0.078201365
0.078201365,0.811339188,0.742913008,0.293255119,0.14662756,0.068426199
0.087976542,0.742913008,0.762463331,0.293255119,0.127077222,0.068426199
0.087976542,0.742913008,0.830889511,0.273704791,0.117302048,0.068426199
0.087976542,0.772238493,0.899315739,0.3030303,0.107526886,0.068426199
0.097751703,0.694037151,0.957966709,0.3030303,0.136852396,0.078201365
0.097751703,0.615835762,0.98729229,0.3030303,0.127077222,0.078201365
0.087976542,0.566959906,1.04594326,0.332355833,0.107526886,0.068426199
0.078201365,0.518084049,1.04594326,0.332355833,0.097751703,0.078201365
0.097751703,0.469208193,1.036168098,0.371456504,0.107526886,0.078201365
0.117302048,0.518084049,1.016617775,0.332355833,0.097751703,0.078201365
0.117302048,0.518084049,1.065493703,0.322580624,0.097751703,0.087976542
0.107526886,0.518084049,1.055718422,0.3030303,0.097751703,0.087976542
0.097751703,0.527859211,1.10459435,0.293255119,0.097751703,0.087976542
0.087976542,0.576735067,1.192570925,0.3030303,0.117302048,0.087976542
0.107526886,0.547409582,1.241446733,0.3030303,0.127077222,0.087976542
0.107526886,0.527859211,1.270772219,0.293255119,0.127077222,0.087976542
0.136852396,0.53763442,1.241446733,0.293255119,0.117302048,0.087976542
0.127077222,0.547409582,1.417399788,0.283479958,0.117302048,0.087976542
0.127077222,0.53763442,1.309872866,0.312805462,0.107526886,0.087976542
0.107526886,0.498533726,1.309872866,0.361681342,0.097751703,0.078201365
0.097751703,0.498533726,1.28054738,0.371456504,0.107526886,0.068426199
0.097751703,0.527859211,1.260997057,0.400782013,0.087976542,0.078201365
0.107526886,0.518084049,1.260997057,0.391006832,0.078201365,0.068426199
0.117302048,0.488758564,1.417399788,0.400782013,0.078201365,0.068426199
0.107526886,0.439882708,1.309872866,0.38123167,0.107526886,0.078201365
0.097751703,0.430107546,1.319648147,0.430107546,0.087976542,0.068426199
0.078201365,0.371456504,1.28054738,0.410557175,0.097751703,0.078201365
0.097751703,0.351906157,1.260997057,0.420332336,0.107526886,0.078201365
0.107526886,0.3030303,1.407624626,0.391006832,0.136852396,0.078201365
0.097751703,0.273704791,1.358748794,0.391006832,0.117302048,0.078201365
0.097751703,0.293255119,1.300097704,0.400782013,0.107526886,0.078201365
0.097751703,0.293255119,1.358748794,0.430107546,0.107526886,0.068426199
0.117302048,0.312805462,1.378299117,0.478983355,0.097751703,0.068426199
0.107526886,0.322580624,1.397849445,0.508308887,0.087976542,0.068426199
0.117302048,0.312805462,1.534701824,0.488758564,0.078201365,0.068426199
0.107526886,0.322580624,1.642228699,0.430107546,0.087976542,0.068426199
0.107526886,0.312805462,1.612903214,0.449657869,0.097751703,0.068426199
0.127077222,0.293255119,1.524926662,0.439882708,0.097751703,0.068426199
0.117302048,0.3030303,1.495601177,0.410557175,0.097751703,0.068426199
0.107526886,0.293255119,1.378299117,0.391006832,0.097751703,0.068426199
0.087976542,0.312805462,1.309872866,0.38123167,0.097751703,0.068426199
0.087976542,0.3030303,1.358748794,0.449657869,0.097751703,0.068426199
0.087976542,0.263929605,1.45650053,0.430107546,0.097751703,0.068426199
0.087976542,0.283479958,1.515151501,0.469208193,0.087976542,0.068426199
0.078201365,0.273704791,1.45650053,0.469208193,0.097751703,0.068426199
0.078201365,0.273704791,1.476050854,0.459433031,0.097751703,0.068426199
0.068426199,0.263929605,1.476050854,0.53763442,0.107526886,0.068426199
0.097751703,0.234604096,1.378299117,0.596285439,0.097751703,0.068426199
0.136852396,0.244379282,1.251221895,0.654936409,0.097751703,0.068426199
0.166177917,0.215053773,1.133919835,0.635386086,0.097751703,0.068426199
0.156402731,0.195503416,1.026392937,0.615835762,0.097751703,0.068426199
0.14662756,0.195503416,0.928641224,0.674486828,0.097751703,0.068426199
0.136852396,0.185728254,0.869990253,0.694037151,0.107526886,0.068426199
0.127077222,0.185728254,0.85043993,0.68426199,0.097751703,0.068426199
0.14662756,0.166177917,0.801564026,0.703812313,0.107526886,0.068426199
0.136852396,0.156402731,0.762463331,0.703812313,0.097751703,0.068426199
0.127077222,0.166177917,0.733137846,0.645161247,0.097751703,0.068426199
0.107526886,0.156402731,0.723362684,0.723362684,0.107526886,0.068426199
0.107526886,0.14662756,0.645161247,0.811339188,0.097751703,0.068426199
0.117302048,0.136852396,0.576735067,0.821114349,0.097751703,0.068426199
0.117302048,0.127077222,0.6060606,0.830889511,0.107526886,0.068426199
0.097751703,0.117302048,0.566959906,0.899315739,0.107526886,0.068426199
0.097751703,0.136852396,0.527859211,0.9090909,0.107526886,0.068426199
0.087976542,0.14662756,0.469208193,0.821114349,0.107526886,0.068426199
0.078201365,0.14662756,0.439882708,0.821114349,0.097751703,0.078201365
0.078201365,0.156402731,0.391006832,0.928641224,0.107526886,0.068426199
0.087976542,0.14662756,0.361681342,0.840664673,0.097751703,0.068426199
0.087976542,0.14662756,0.3030303,0.899315739,0.087976542,0.068426199
0.097751703,0.14662756,0.263929605,0.938416386,0.087976542,0.068426199
0.107526886,0.127077222,0.254154444,0.977517128,0.078201365,0.068426199
0.117302048,0.107526886,0.244379282,0.98729229,0.087976542,0.068426199
0.117302048,0.097751703,0.224828935,0.938416386,0.097751703,0.068426199
0.107526886,0.097751703,0.224828935,0.967741871,0.097751703,0.068426199
0.127077222,0.107526886,0.224828935,0.98729229,0.14662756,0.087976542
