0.0782013654,0.0293255119,1.0654937028,0.0097751703
1.0459432601,0.6842619895,1.4467253684,0.0195503416
0.8211143493,0.5962854385,1.1436949968,0.0195503416
0.6549364089,0.5180840492,0.8993157386,0.0195503416
0.5278592109,0.4789833545,0.7038123130,0.0195503416
0.4203323364,0.5278592109,0.5474095821,0.0195503416
0.3323558330,0.4496578693,0.4301075458,0.0195503416
0.2639296054,0.4789833545,0.3421309947,0.0195503416
0.2150537729,0.5083088874,0.2639296054,0.0195503416
0.1759530782,0.4301075458,0.2052785873,0.0195503416
0.1466275596,0.4203323364,0.1661779165,0.0195503416
0.1173020482,0.4398827075,0.1270772218,0.0293255119
0.0977517032,0.3812316703,0.0977517032,0.0293255119
0.0684261989,0.4007820129,0.0782013654,0.0195503416
0.0586510229,0.3421309947,0.0684261989,0.0195503416
0.0488758516,0.3128054618,0.0488758516,0.0195503416
0.0488758516,0.3616813421,0.0391006832,0.0293255119
0.0391006832,0.3616813421,0.0195503416,0.0293255119
0.0293255119,0.3225806236,0.0195503416,0.0195503416
0.0293255119,0.3225806236,0.0195503416,0.0195503416
0.0391006832,0.3421309947,0.0097751703,0.0195503416
0.0293255119,0.3812316703,0.0097751703,0.0195503416
0.0195503416,0.3421309947,0.0097751703,0.0195503416
0.0195503416,0.3812316703,0.0000000000,0.0195503416
0.0195503416,0.3616813421,0.0000000000,0.0195503416
0.0195503416,0.3225806236,0.0000000000,0.0195503416
0.0293255119,0.3030303001,0.0000000000,0.0195503416
0.0195503416,0.2932551193,0.0000000000,0.0097751703
0.0195503416,0.2834799575,0.0000000000,0.0097751703
0.0195503416,0.3030303001,0.0000000000,0.0195503416
0.0097751703,0.2737047910,0.0000000000,0.0097751703
0.0097751703,0.2932551193,0.0000000000,0.0097751703
0.0097751703,0.3030303001,0.0000000000,0.0097751703
0.0097751703,0.3128054618,0.0000000000,0.0195503416
0.0195503416,0.3421309947,0.0000000000,0.0097751703
0.0195503416,0.3030303001,0.0000000000,0.0195503416
0.0195503416,0.2932551193,0.0000000000,0.0097751703
0.0097751703,0.2834799575,0.0000000000,0.0097751703
0.0195503416,0.2834799575,0.0000000000,0.0097751703
0.0195503416,0.2443792819,0.0000000000,0.0097751703
0.0195503416,0.2248289346,0.0000000000,0.0097751703
0.0195503416,0.2150537729,0.0000000000,0.0097751703
0.0195503416,0.1955034160,0.0000000000,0.0097751703
0.0195503416,0.1661779165,0.0000000000,0.0195503416
0.0195503416,0.1564027309,0.0000000000,0.0195503416
0.0195503416,0.1466275596,0.0000000000,0.0195503416
0.0195503416,0.2052785873,0.0000000000,0.0195503416
0.0097751703,0.1759530782,0.0000000000,0.0293255119
0.0097751703,0.1564027309,0.0000000000,0.0195503416
0.0097751703,0.1368523955,0.0000000000,0.0293255119
0.0097751703,0.1466275596,0.0000000000,0.0195503416
0.0097751703,0.1173020482,0.0000000000,0.0293255119
0.0097751703,0.1075268864,0.0000000000,0.0195503416
0.0097751703,0.1075268864,0.0000000000,0.0195503416
0.0097751703,0.0977517032,0.0000000000,0.0293255119
0.0097751703,0.0879765415,0.0000000000,0.0293255119
0.0097751703,0.0879765415,0.0000000000,0.0195503416
0.0097751703,0.0782013654,0.0000000000,0.0293255119
0.0097751703,0.0684261989,0.0000000000,0.0195503416
0.0097751703,0.0684261989,0.0000000000,0.0293255119
0.0097751703,0.0684261989,0.0000000000,0.0293255119
0.0097751703,0.0879765415,0.0000000000,0.0293255119
0.0097751703,0.0879765415,0.0000000000,0.0195503416
0.0097751703,0.1075268864,0.0000000000,0.0195503416
0.0097751703,0.1173020482,0.0000000000,0.0195503416
0.0195503416,0.1466275596,0.0000000000,0.0293255119
0.0097751703,0.1466275596,0.0000000000,0.0293255119
0.0097751703,0.1955034160,0.0000000000,0.0391006832
0.0097751703,0.2541544437,0.0000000000,0.0391006832
0.0097751703,0.3128054618,0.0000000000,0.0391006832
0.0097751703,0.4203323364,0.0000000000,0.0684261989
0.0097751703,0.5767350673,0.0000000000,0.0586510229
0.0097751703,0.6451612472,0.0000000000,0.0488758516
0.0097751703,0.6549364089,0.0000000000,0.0488758516
0.0097751703,0.7233626842,0.0000000000,0.0586510229
0.0097751703,0.8406646728,0.0000000000,0.0488758516
0.0097751703,1.0361680984,0.0000000000,0.0488758516
0.0097751703,0.9872922897,0.0000000000,0.0586510229
0.0097751703,1.0654937028,0.0000000000,0.0586510229
0.0097751703,0.9970674514,0.0000000000,0.0879765415
0.0097751703,1.0752688646,0.0000000000,0.1075268864
0.0097751703,1.0361680984,0.0000000000,0.1173020482
0.0097751703,1.3294233083,0.0000000000,0.1270772218
0.0097751703,1.3196481466,0.0000000000,0.1173020482
0.0097751703,1.5835777282,0.0000000000,0.1759530782
0.0097751703,2.0821113586,0.0000000000,0.1759530782
0.0097751703,2.0723361968,0.0000000000,0.1759530782
0.0097751703,2.0332355499,0.0000000000,0.1759530782
0.0097751703,1.8670577049,0.0000000000,0.1857282543
0.0097751703,1.8181818962,0.0000000000,0.1857282543
0.0097751703,1.6813293457,0.0000000000,0.2248289346
0.0097751703,1.7302052974,0.0000000000,0.2052785873
0.0097751703,1.6031280517,0.0000000000,0.2052785873
0.0097751703,1.4076246261,0.0000000000,0.2639296054
0.0195503416,1.2609970569,0.0000000000,0.2737047910
0.0097751703,1.2218964099,0.0000000000,0.2737047910
0.0195503416,1.0948191833,0.0000000000,0.3030303001
0.0097751703,1.0361680984,0.0000000000,0.3714565038
0.0195503416,0.9677418708,0.0000000000,0.3616813421
0.0195503416,0.8406646728,0.0000000000,0.3812316703
0.0195503416,0.7917888641,0.0000000000,0.3616813421
0.0195503416,0.6647116661,0.0000000000,0.4105571746
0.0195503416,0.6158357620,0.0000000000,0.4496578693
0.0195503416,0.6060606002,0.0000000000,0.4007820129
0.0195503416,0.5376344203,0.0000000000,0.4007820129
0.0195503416,0.5571847438,0.0000000000,0.4692081928
0.0195503416,0.5474095821,0.0000000000,0.4398827075
0.0195503416,0.5571847438,0.0000000000,0.4301075458
0.0097751703,0.5865102291,0.0000000000,0.4105571746
0.0195503416,0.5571847438,0.0000000000,0.3812316703
0.0097751703,0.5571847438,0.0000000000,0.3714565038
0.0097751703,0.5767350673,0.0000000000,0.3323558330
0.0097751703,0.5278592109,0.0000000000,0.3323558330
0.0097751703,0.4985337257,0.0000000000,0.2834799575
0.0097751703,0.5767350673,0.0000000000,0.2834799575
0.0097751703,0.5571847438,0.0000000000,0.2639296054
0.0097751703,0.5278592109,0.0000000000,0.2541544437
0.0195503416,0.4887585639,0.0000000000,0.2639296054
0.0097751703,0.5474095821,0.0000000000,0.2737047910
0.0097751703,0.5180840492,0.0000000000,0.2639296054
0.0097751703,0.4985337257,0.0000000000,0.2541544437
0.0097751703,0.4985337257,0.0000000000,0.2248289346
0.0097751703,0.4692081928,0.0000000000,0.2052785873
0.0195503416,0.4985337257,0.0000000000,0.2248289346
0.0195503416,0.4789833545,0.0000000000,0.2052785873
0.0195503416,0.4789833545,0.0000000000,0.1857282543
0.0195503416,0.4594330310,0.0000000000,0.1759530782
0.0195503416,0.5278592109,0.0000000000,0.1661779165
0.0195503416,0.5376344203,0.0000000000,0.1368523955
0.0097751703,0.4594330310,0.0000000000,0.1368523955
0.0195503416,0.4985337257,0.0000000000,0.1270772218
0.0097751703,0.4985337257,0.0000000000,0.1173020482
0.0097751703,0.4301075458,0.0000000000,0.1075268864
0.0097751703,0.3910068321,0.0000000000,0.0977517032
0.0097751703,0.4203323364,0.0000000000,0.0879765415
0.0097751703,0.4398827075,0.0000000000,0.0879765415
0.0097751703,0.3910068321,0.0000000000,0.0879765415
0.0097751703,0.3519061565,0.0000000000,0.0879765415
0.0097751703,0.3812316703,0.0000000000,0.0977517032
0.0097751703,0.3323558330,0.0000000000,0.0879765415
0.0097751703,0.4398827075,0.0000000000,0.0879765415
0.0097751703,0.4105571746,0.0000000000,0.0879765415
0.0097751703,0.4105571746,0.0000000000,0.1075268864
0.0097751703,0.3714565038,0.0000000000,0.1075268864
0.0097751703,0.3714565038,0.0000000000,0.1270772218
0.0097751703,0.3812316703,0.0000000000,0.1270772218
0.0195503416,0.3225806236,0.0000000000,0.0977517032
0.0097751703,0.3421309947,0.0000000000,0.0977517032
0.0293255119,0.3225806236,0.0000000000,0.0977517032
0.0097751703,0.2932551193,0.0000000000,0.0879765415
0.0097751703,0.2737047910,0.0000000000,0.1075268864
0.0097751703,0.2443792819,0.0000000000,0.1075268864
0.0097751703,0.2443792819,0.0000000000,0.0879765415
0.0097751703,0.2248289346,0.0000000000,0.0782013654
0.0097751703,0.2443792819,0.0000000000,0.0977517032
0.0097751703,0.3225806236,0.0000000000,0.0782013654
0.0097751703,0.3225806236,0.0000000000,0.0684261989
0.0097751703,0.3030303001,0.0000000000,0.0684261989
0.0097751703,0.2932551193,0.0000000000,0.0684261989
0.0195503416,0.2541544437,0.0000000000,0.0586510229
0.0097751703,0.2248289346,0.0000000000,0.0488758516
0.0097751703,0.1955034160,0.0000000000,0.0391006832
0.0097751703,0.1955034160,0.0000000000,0.0293255119
0.0097751703,0.1857282543,0.0000000000,0.0293255119
0.0097751703,0.1661779165,0.0000000000,0.0293255119
0.0097751703,0.1564027309,0.0000000000,0.0293255119
0.0097751703,0.1466275596,0.0000000000,0.0293255119
0.0097751703,0.1368523955,0.0000000000,0.0391006832
0.0097751703,0.1368523955,0.0000000000,0.0293255119
0.0097751703,0.1270772218,0.0000000000,0.0293255119
0.0097751703,0.1270772218,0.0000000000,0.0391006832
0.0097751703,0.1173020482,0.0000000000,0.0488758516
0.0195503416,0.1173020482,0.0000000000,0.0684261989
0.0097751703,0.0977517032,0.0000000000,0.0879765415
0.0097751703,0.0879765415,0.0000000000,0.1270772218
0.0097751703,0.0879765415,0.0000000000,0.1466275596
0.0097751703,0.0977517032,0.0000000000,0.2443792819
0.0097751703,0.1075268864,0.0000000000,0.2737047910
0.0097751703,0.1075268864,0.0000000000,0.3225806236
0.0097751703,0.1173020482,0.0000000000,0.4203323364
0.0097751703,0.1270772218,0.0000000000,0.5083088874
0.0097751703,0.1173020482,0.0000000000,0.5962854385
0.0195503416,0.1661779165,0.0000000000,0.6744868278
0.0097751703,0.2052785873,0.0000000000,0.7526881694
0.0097751703,0.3225806236,0.0000000000,0.8211143493
0.0097751703,0.4692081928,0.0000000000,0.8211143493
0.0097751703,0.5865102291,0.0000000000,0.8602150917
0.0097751703,0.6451612472,0.0000000000,0.7624633312
0.0097751703,0.6549364089,0.0000000000,0.7429130077
0.0097751703,0.7820136547,0.0000000000,0.8993157386
0.0097751703,0.8699902534,0.0000000000,0.9677418708
0.0097751703,0.8699902534,0.0000000000,0.9188660621
0.0097751703,0.8895405769,0.0000000000,0.9384163856
0.0097751703,0.9286412239,0.0000000000,0.8504399299
0.0097751703,1.1827956390,0.0000000000,0.7526881694
0.0097751703,1.2023460865,0.0000000000,0.6647116661
0.0097751703,1.3294233083,0.0000000000,0.5962854385
0.0195503416,1.2512218952,0.0000000000,0.5571847438
0.0195503416,1.2218964099,0.0000000000,0.5278592109
0.0195503416,1.2218964099,0.0000000000,0.5767350673
0.0097751703,1.2218964099,0.0000000000,0.5083088874
0.0097751703,1.0654937028,0.0000000000,0.4594330310
0.0097751703,1.3782991170,0.0000000000,0.4105571746
0.0097751703,1.4565005302,0.0000000000,0.3714565038
0.0097751703,1.4271749496,0.0000000000,0.3421309947
0.0097751703,1.3196481466,0.0000000000,0.3225806236
0.0097751703,1.2023460865,0.0000000000,0.3910068321
0.0097751703,1.1730204820,0.0000000000,0.4203323364
0.0097751703,1.2316715717,0.0000000000,0.4007820129
0.0097751703,1.1730204820,0.0000000000,0.3421309947
0.0097751703,1.0557184219,0.0000000000,0.3225806236
0.0097751703,1.0166177749,0.0000000000,0.3225806236
0.0097751703,1.0166177749,0.0000000000,0.3323558330
0.0097751703,0.9970674514,0.0000000000,0.3030303001
0.0097751703,0.8504399299,0.0000000000,0.3323558330
0.0097751703,0.7526881694,0.0000000000,0.3812316703
0.0195503416,0.6940371513,0.0000000000,0.3616813421
0.0195503416,0.6744868278,0.0000000000,0.3225806236
0.0195503416,0.6451612472,0.0000000000,0.2834799575
0.0293255119,0.6353860855,0.0000000000,0.3225806236
0.0195503416,0.6451612472,0.0000000000,0.3225806236
0.0195503416,0.5962854385,0.0000000000,0.3030303001
0.0195503416,0.5767350673,0.0000000000,0.2834799575
0.0097751703,0.5571847438,0.0000000000,0.2443792819
0.0097751703,0.5767350673,0.0000000000,0.2346040964
0.0097751703,0.6647116661,0.0000000000,0.2248289346
0.0097751703,0.7624633312,0.0000000000,0.2248289346
0.0097751703,0.7624633312,0.0000000000,0.2052785873
0.0097751703,0.7233626842,0.0000000000,0.2052785873
0.0097751703,0.6842619895,0.0000000000,0.2150537729
0.0097751703,0.6744868278,0.0000000000,0.2150537729
0.0097751703,0.5962854385,0.0000000000,0.2248289346
0.0097751703,0.6060606002,0.0000000000,0.2346040964
0.0097751703,0.6451612472,0.0000000000,0.2443792819
0.0097751703,0.5962854385,0.0000000000,0.2052785873
0.0097751703,0.5767350673,0.0000000000,0.1759530782
0.0097751703,0.5865102291,0.0000000000,0.1955034160
0.0097751703,0.6451612472,0.0000000000,0.2346040964
0.0097751703,0.6353860855,0.0000000000,0.3030303001
0.0097751703,0.5865102291,0.0000000000,0.2639296054
0.0097751703,0.6060606002,0.0000000000,0.2150537729
0.0097751703,0.5571847438,0.0000000000,0.2052785873
0.0097751703,0.5180840492,0.0000000000,0.2150537729
0.0097751703,0.4985337257,0.0000000000,0.2443792819
0.0097751703,0.4985337257,0.0000000000,0.2541544437
0.0097751703,0.4692081928,0.0000000000,0.2150537729
0.0195503416,0.4594330310,0.0000000000,0.2052785873
0.0195503416,0.4985337257,0.0000000000,0.2346040964
0.0195503416,0.4594330310,0.0000000000,0.2150537729
0.0195503416,0.4301075458,0.0000000000,0.2150537729
0.0195503416,0.4398827075,0.0000000000,0.2052785873
0.0097751703,0.4887585639,0.0000000000,0.1857282543
0.0097751703,0.5180840492,0.0000000000,0.1564027309
0.0097751703,0.5083088874,0.0000000000,0.1564027309
0.0097751703,0.5278592109,0.0000000000,0.1368523955
0.0097751703,0.5083088874,0.0000000000,0.1368523955
0.0097751703,0.4496578693,0.0000000000,0.1075268864
0.0195503416,0.4203323364,0.0000000000,0.0977517032
0.0195503416,0.3812316703,0.0000000000,0.1270772218
0.0195503416,0.3519061565,0.0000000000,0.1955034160
0.0195503416,0.3030303001,0.0000000000,0.1661779165
0.0195503416,0.3519061565,0.0000000000,0.1368523955
0.0097751703,0.3323558330,0.0000000000,0.1173020482
0.0097751703,0.3421309947,0.0000000000,0.0977517032
0.0097751703,0.3421309947,0.0000000000,0.0879765415
0.0097751703,0.3128054618,0.0000000000,0.0879765415
0.0195503416,0.3421309947,0.0000000000,0.0879765415
0.0097751703,0.3323558330,0.0000000000,0.0879765415
0.0097751703,0.2834799575,0.0000000000,0.0684261989
0.0097751703,0.3030303001,0.0000000000,0.0586510229
0.0097751703,0.2932551193,0.0000000000,0.0488758516
0.0097751703,0.3128054618,0.0000000000,0.0782013654
0.0097751703,0.2932551193,0.0000000000,0.0684261989
0.0097751703,0.2541544437,0.0000000000,0.0684261989
0.0097751703,0.2639296054,0.0000000000,0.0977517032
0.0097751703,0.2443792819,0.0000000000,0.0879765415
0.0097751703,0.2248289346,0.0000000000,0.1173020482
0.0097751703,0.2248289346,0.0000000000,0.1270772218
0.0097751703,0.1955034160,0.0000000000,0.1466275596
0.0097751703,0.1661779165,0.0000000000,0.1368523955
0.0097751703,0.1661779165,0.0000000000,0.1466275596
0.0097751703,0.1564027309,0.0000000000,0.1368523955
0.0097751703,0.1759530782,0.0000000000,0.1564027309
0.0097751703,0.1661779165,0.0000000000,0.1466275596
0.0097751703,0.1759530782,0.0000000000,0.1661779165
0.0097751703,0.1759530782,0.0000000000,0.1857282543
0.0000000000,0.1661779165,0.0000000000,0.1857282543
0.0097751703,0.1955034160,0.0000000000,0.2248289346
0.0097751703,0.1857282543,0.0000000000,0.2639296054
0.0195503416,0.1759530782,0.0000000000,0.3128054618
0.0097751703,0.1759530782,0.0000000000,0.3714565038
0.0097751703,0.1661779165,0.0000000000,0.4301075458
0.0097751703,0.1661779165,0.0000000000,0.4985337257
0.0097751703,0.1466275596,0.0000000000,0.4594330310
0.0097751703,0.1368523955,0.0000000000,0.4985337257
0.0097751703,0.1368523955,0.0000000000,0.4789833545
0.0097751703,0.1466275596,0.0000000000,0.4496578693
0.0097751703,0.1466275596,0.0000000000,0.4398827075
0.0097751703,0.1955034160,0.0000000000,0.4789833545
0.0097751703,0.2052785873,0.0000000000,0.4496578693
0.0097751703,0.2346040964,0.0000000000,0.3812316703
0.0097751703,0.2639296054,0.0000000000,0.3519061565
0.0293255119,0.3323558330,0.0000000000,0.3519061565
0.0293255119,0.4301075458,0.0000000000,0.3323558330
0.0293255119,0.4398827075,0.0000000000,0.3128054618
0.0488758516,0.5962854385,0.0000000000,0.3225806236
0.0391006832,0.6549364089,0.0000000000,0.3225806236
0.0488758516,0.7820136547,0.0000000000,0.4007820129
0.0586510229,0.7624633312,0.0000000000,0.3910068321
0.0586510229,0.8895405769,0.0000000000,0.3910068321
0.0684261989,1.0068426132,0.0000000000,0.4105571746
0.0586510229,1.0166177749,0.0000000000,0.4301075458
0.0684261989,0.9286412239,0.0000000000,0.3812316703
0.0684261989,1.0557184219,0.0000000000,0.3910068321
0.0586510229,1.3294233083,0.0000000000,0.3910068321
0.0684261989,1.3782991170,0.0000000000,0.3519061565
0.0684261989,1.4369501113,0.0000000000,0.3421309947
0.0684261989,1.2805473804,0.0000000000,0.3030303001
0.0684261989,1.2805473804,0.0000000000,0.2834799575
0.0782013654,1.7497556209,0.0000000000,0.2443792819
0.0879765415,1.9941349029,0.0000000000,0.2443792819
0.1075268864,1.9843597412,0.0000000000,0.2443792819
0.1466275596,1.7399804592,0.0000000000,0.2737047910
0.1368523955,1.6813293457,0.0000000000,0.2737047910
0.1270772218,1.7008798122,0.0000000000,0.2541544437
0.1075268864,1.5835777282,0.0000000000,0.2443792819
0.1075268864,1.5640273094,0.0000000000,0.2541544437
0.1270772218,1.5640273094,0.0000000000,0.2443792819
0.1075268864,1.4369501113,0.0000000000,0.2346040964
0.0879765415,1.2512218952,0.0000000000,0.2443792819
0.0879765415,1.0948191833,0.0000000000,0.2639296054
0.0782013654,0.9286412239,0.0000000000,0.2443792819
0.0684261989,0.8993157386,0.0000000000,0.2248289346
0.0586510229,0.8113391876,0.0000000000,0.2052785873
0.0586510229,0.7429130077,0.0000000000,0.1955034160
0.0488758516,0.6353860855,0.0000000000,0.2541544437
0.0488758516,0.5767350673,0.0000000000,0.2443792819
0.0488758516,0.5376344203,0.0000000000,0.2150537729
0.0488758516,0.4789833545,0.0000000000,0.1955034160
0.0488758516,0.5083088874,0.0000000000,0.2052785873
0.0684261989,0.5571847438,0.0000000000,0.2639296054
0.0586510229,0.5376344203,0.0000000000,0.2443792819
0.0586510229,0.5571847438,0.0000000000,0.2248289346
0.0488758516,0.5278592109,0.0000000000,0.1955034160
0.0391006832,0.5180840492,0.0000000000,0.1661779165
0.0293255119,0.5669599056,0.0000000000,0.1759530782
0.0293255119,0.5865102291,0.0000000000,0.1759530782
0.0293255119,0.5571847438,0.0000000000,0.1564027309
0.0293255119,0.6256109237,0.0000000000,0.1270772218
0.0195503416,0.7722384929,0.0000000000,0.1173020482
0.0195503416,0.7526881694,0.0000000000,0.1075268864
0.0195503416,0.7135874748,0.0000000000,0.1075268864
0.0097751703,0.7429130077,0.0000000000,0.1075268864
0.0195503416,0.6549364089,0.0000000000,0.1075268864
0.0097751703,0.6842619895,0.0000000000,0.0977517032
0.0195503416,0.6647116661,0.0000000000,0.0879765415
0.0195503416,0.5767350673,0.0000000000,0.0782013654
0.0195503416,0.5278592109,0.0000000000,0.0782013654
0.0195503416,0.5180840492,0.0000000000,0.0879765415
0.0195503416,0.6256109237,0.0000000000,0.0782013654
0.0195503416,0.6842619895,0.0000000000,0.0879765415
0.0195503416,0.6158357620,0.0000000000,0.0782013654
0.0195503416,0.5669599056,0.0000000000,0.0684261989
0.0195503416,0.5278592109,0.0000000000,0.0684261989
0.0195503416,0.5083088874,0.0000000000,0.0586510229
0.0195503416,0.4692081928,0.0000000000,0.0782013654
0.0097751703,0.4203323364,0.0000000000,0.0684261989
0.0195503416,0.4496578693,0.0000000000,0.0684261989
0.0195503416,0.5083088874,0.0000000000,0.0586510229
0.0195503416,0.4692081928,0.0000000000,0.0586510229
0.0195503416,0.4105571746,0.0000000000,0.0586510229
0.0195503416,0.4496578693,0.0000000000,0.0586510229
0.0097751703,0.4105571746,0.0000000000,0.0586510229
0.0097751703,0.4301075458,0.0000000000,0.0488758516
0.0195503416,0.4887585639,0.0000000000,0.0391006832
0.0097751703,0.4398827075,0.0000000000,0.0391006832
0.0097751703,0.4007820129,0.0000000000,0.0391006832
0.0097751703,0.3910068321,0.0000000000,0.0391006832
0.0097751703,0.3519061565,0.0000000000,0.0488758516
0.0097751703,0.3323558330,0.0000000000,0.0488758516
0.0195503416,0.2932551193,0.0000000000,0.0586510229
0.0097751703,0.2932551193,0.0000000000,0.0488758516
0.0097751703,0.2639296054,0.0000000000,0.0391006832
0.0097751703,0.2639296054,0.0000000000,0.0293255119
0.0097751703,0.2639296054,0.0000000000,0.0391006832
0.0097751703,0.2346040964,0.0000000000,0.0293255119
0.0097751703,0.2052785873,0.0000000000,0.0391006832
0.0097751703,0.2052785873,0.0000000000,0.0586510229
0.0097751703,0.2052785873,0.0000000000,0.0782013654
0.0097751703,0.1955034160,0.0000000000,0.0977517032
0.0097751703,0.1857282543,0.0000000000,0.1075268864
0.0097751703,0.2052785873,0.0000000000,0.1075268864
0.0097751703,0.2150537729,0.0000000000,0.1368523955
0.0097751703,0.1759530782,0.0000000000,0.1661779165
0.0097751703,0.1661779165,0.0000000000,0.2052785873
0.0097751703,0.1661779165,0.0000000000,0.1955034160
0.0097751703,0.1661779165,0.0000000000,0.2834799575
0.0097751703,0.1270772218,0.0000000000,0.2639296054
0.0097751703,0.1270772218,0.0000000000,0.2541544437
0.0097751703,0.1368523955,0.0000000000,0.2737047910
0.0097751703,0.1368523955,0.0000000000,0.3323558330
0.0097751703,0.1368523955,0.0000000000,0.3323558330
0.0097751703,0.1173020482,0.0000000000,0.4398827075
0.0097751703,0.1075268864,0.0000000000,0.4594330310
0.0097751703,0.1075268864,0.0000000000,0.4985337257
0.0097751703,0.0977517032,0.0000000000,0.4985337257
0.0097751703,0.0879765415,0.0000000000,0.5571847438
0.0097751703,0.0879765415,0.0000000000,0.5865102291
0.0097751703,0.0782013654,0.0000000000,0.5767350673
0.0097751703,0.0782013654,0.0000000000,0.5865102291
0.0097751703,0.0879765415,0.0000000000,0.5962854385
0.0097751703,0.0879765415,0.0000000000,0.6451612472
0.0097751703,0.1075268864,0.0000000000,0.6842619895
0.0097751703,0.1270772218,0.0000000000,0.7233626842
0.0097751703,0.1857282543,0.0000000000,0.8015640258
0.0097751703,0.3030303001,0.0000000000,0.8113391876
0.0097751703,0.3225806236,0.0000000000,0.7820136547
0.0097751703,0.3714565038,0.0000000000,0.7038123130
0.0097751703,0.5083088874,0.0000000000,0.6353860855
0.0097751703,0.7722384929,0.0000000000,0.5669599056
0.0097751703,0.7722384929,0.0000000000,0.5962854385
0.0097751703,0.8504399299,0.0000000000,0.6158357620
0.0097751703,0.9286412239,0.0000000000,0.5376344203
0.0097751703,0.9286412239,0.0000000000,0.4887585639
0.0097751703,1.0068426132,0.0000000000,0.4398827075
0.0097751703,1.0850440216,0.0000000000,0.4398827075
0.0097751703,1.2023460865,0.0000000000,0.4203323364
0.0097751703,1.2023460865,0.0000000000,0.3910068321
0.0097751703,1.2316715717,0.0000000000,0.3519061565
0.0097751703,1.4076246261,0.0000000000,0.3616813421
0.0097751703,1.4369501113,0.0000000000,0.4301075458
0.0097751703,1.4369501113,0.0000000000,0.4203323364
0.0097751703,1.3489736318,0.0000000000,0.3812316703
0.0097751703,1.3000977039,0.0000000000,0.3812316703
0.0097751703,1.3782991170,0.0000000000,0.3421309947
0.0097751703,1.5347018241,0.0000000000,0.3421309947
0.0097751703,1.4076246261,0.0000000000,0.3519061565
0.0097751703,1.3880742835,0.0000000000,0.3225806236
0.0097751703,1.3685239553,0.0000000000,0.3421309947
0.0195503416,1.2512218952,0.0000000000,0.3128054618
0.0097751703,1.2316715717,0.0000000000,0.3421309947
0.0097751703,1.0459432601,0.0000000000,0.3323558330
0.0097751703,0.8504399299,0.0000000000,0.3128054618
0.0097751703,0.7624633312,0.0000000000,0.2737047910
0.0097751703,0.7135874748,0.0000000000,0.2639296054
0.0097751703,0.6353860855,0.0000000000,0.2737047910
0.0097751703,0.5669599056,0.0000000000,0.3030303001
0.0097751703,0.5278592109,0.0000000000,0.3030303001
0.0097751703,0.4789833545,0.0000000000,0.2737047910
0.0097751703,0.4887585639,0.0000000000,0.2932551193
0.0097751703,0.4496578693,0.0000000000,0.3519061565
0.0097751703,0.5571847438,0.0000000000,0.3128054618
0.0000000000,0.5669599056,0.0000000000,0.2932551193
0.0097751703,0.6451612472,0.0000000000,0.2443792819
0.0097751703,0.6940371513,0.0000000000,0.2346040964
0.0097751703,0.7233626842,0.0000000000,0.2052785873
0.0000000000,0.7233626842,0.0000000000,0.2052785873
0.0097751703,0.6744868278,0.0000000000,0.1857282543
0.0097751703,0.6549364089,0.0000000000,0.1661779165
0.0097751703,0.7429130077,0.0000000000,0.1857282543
0.0097751703,0.7135874748,0.0000000000,0.1857282543
0.0097751703,0.6353860855,0.0000000000,0.1857282543
0.0195503416,0.5669599056,0.0000000000,0.1661779165
0.0195503416,0.5376344203,0.0000000000,0.1857282543
0.0293255119,0.4985337257,0.0000000000,0.1661779165
0.0195503416,0.4789833545,0.0000000000,0.1661779165
0.0195503416,0.4789833545,0.0000000000,0.1368523955
0.0195503416,0.4887585639,0.0000000000,0.1270772218
0.0195503416,0.5278592109,0.0000000000,0.1564027309
0.0195503416,0.5083088874,0.0000000000,0.1270772218
0.0195503416,0.4985337257,0.0000000000,0.1173020482
0.0097751703,0.4301075458,0.0000000000,0.1075268864
0.0097751703,0.4105571746,0.0000000000,0.0977517032
0.0097751703,0.3910068321,0.0000000000,0.0879765415
0.0097751703,0.3910068321,0.0000000000,0.0879765415
0.0097751703,0.4496578693,0.0000000000,0.0879765415
0.0097751703,0.4398827075,0.0000000000,0.0977517032
0.0097751703,0.4496578693,0.0000000000,0.0879765415
0.0097751703,0.4203323364,0.0000000000,0.0879765415
0.0097751703,0.3812316703,0.0000000000,0.0879765415
0.0097751703,0.3910068321,0.0000000000,0.0879765415
0.0097751703,0.3616813421,0.0000000000,0.0782013654
0.0195503416,0.3030303001,0.0000000000,0.0684261989
0.0097751703,0.2932551193,0.0000000000,0.0586510229
0.0097751703,0.3421309947,0.0000000000,0.0488758516
0.0195503416,0.3128054618,0.0000000000,0.0488758516
0.0097751703,0.2737047910,0.0000000000,0.0391006832
0.0195503416,0.2834799575,0.0000000000,0.0488758516
0.0195503416,0.2737047910,0.0000000000,0.0586510229
0.0097751703,0.2443792819,0.0000000000,0.0488758516
0.0097751703,0.2346040964,0.0000000000,0.0488758516
0.0195503416,0.2150537729,0.0000000000,0.0684261989
0.0097751703,0.2052785873,0.0000000000,0.0586510229
0.0097751703,0.2150537729,0.0000000000,0.0488758516
0.0195503416,0.1759530782,0.0000000000,0.0391006832
0.0097751703,0.1955034160,0.0000000000,0.0488758516
0.0097751703,0.2052785873,0.0000000000,0.0488758516
0.0195503416,0.1759530782,0.0000000000,0.0391006832
0.0195503416,0.1857282543,0.0000000000,0.0391006832
0.0097751703,0.1857282543,0.0000000000,0.0391006832
0.0097751703,0.1661779165,0.0000000000,0.0195503416
0.0195503416,0.1857282543,0.0000000000,0.0195503416
0.0097751703,0.1857282543,0.0000000000,0.0195503416
0.0097751703,0.1759530782,0.0000000000,0.0293255119
0.0097751703,0.1661779165,0.0000000000,0.0293255119
0.0097751703,0.1661779165,0.0000000000,0.0195503416
0.0097751703,0.1466275596,0.0000000000,0.0293255119
0.0097751703,0.1270772218,0.0000000000,0.0293255119
0.0097751703,0.1368523955,0.0000000000,0.0391006832
0.0097751703,0.1368523955,0.0000000000,0.0391006832
0.0097751703,0.1368523955,0.0000000000,0.0586510229
0.0097751703,0.1368523955,0.0000000000,0.0684261989
0.0097751703,0.1173020482,0.0000000000,0.0879765415
0.0097751703,0.1270772218,0.0000000000,0.1075268864
0.0097751703,0.1173020482,0.0000000000,0.1564027309
0.0097751703,0.1368523955,0.0000000000,0.1759530782
0.0097751703,0.1270772218,0.0000000000,0.2541544437
0.0097751703,0.1466275596,0.0000000000,0.2737047910
0.0097751703,0.1270772218,0.0000000000,0.3128054618
0.0097751703,0.1270772218,0.0000000000,0.3616813421
0.0097751703,0.1466275596,0.0000000000,0.4105571746
0.0097751703,0.1564027309,0.0000000000,0.4594330310
0.0097751703,0.1857282543,0.0000000000,0.4985337257
0.0097751703,0.2248289346,0.0000000000,0.5180840492
0.0097751703,0.1955034160,0.0000000000,0.5376344203
0.0097751703,0.1759530782,0.0000000000,0.5376344203
0.0097751703,0.1759530782,0.0000000000,0.5278592109
0.0097751703,0.1955034160,0.0000000000,0.5180840492
0.0097751703,0.2443792819,0.0000000000,0.5865102291
0.0097751703,0.2737047910,0.0000000000,0.6451612472
0.0097751703,0.3812316703,0.0000000000,0.5669599056
0.0097751703,0.4301075458,0.0000000000,0.5865102291
0.0097751703,0.5962854385,0.0000000000,0.6451612472
0.0097751703,0.6158357620,0.0000000000,0.6451612472
0.0097751703,0.6647116661,0.0000000000,0.6647116661
0.0097751703,0.7722384929,0.0000000000,0.5962854385
0.0097751703,0.8406646728,0.0000000000,0.5474095821
0.0097751703,0.7917888641,0.0000000000,0.5571847438
0.0097751703,0.9188660621,0.0000000000,0.5669599056
0.0097751703,0.9481915473,0.0000000000,0.6256109237
0.0097751703,0.8699902534,0.0000000000,0.6647116661
0.0097751703,0.9775171279,0.0000000000,0.5962854385
0.0097751703,1.1143695116,0.0000000000,0.5962854385
0.0097751703,1.0948191833,0.0000000000,0.5865102291
0.0097751703,1.0263929367,0.0000000000,0.5962854385
0.0097751703,1.0850440216,0.0000000000,0.5669599056
0.0097751703,1.1143695116,0.0000000000,0.5083088874
0.0097751703,1.0557184219,0.0000000000,0.4496578693
0.0097751703,1.0752688646,0.0000000000,0.4203323364
0.0097751703,1.0459432601,0.0000000000,0.3910068321
0.0097751703,1.2609970569,0.0000000000,0.3519061565
0.0097751703,1.4076246261,0.0000000000,0.3519061565
0.0097751703,1.7008798122,0.0000000000,0.3714565038
0.0097751703,2.0039100646,0.0000000000,0.4496578693
0.0097751703,1.9061583518,0.0000000000,0.4105571746
0.0097751703,1.9941349029,0.0000000000,0.4203323364
0.0097751703,1.9061583518,0.0000000000,0.3812316703
0.0097751703,1.6422286987,0.0000000000,0.4398827075
0.0097751703,1.4760508537,0.0000000000,0.5180840492
0.0195503416,1.3391984701,0.0000000000,0.4398827075
0.0097751703,1.1143695116,0.0000000000,0.3616813421
0.0097751703,0.9188660621,0.0000000000,0.3323558330
0.0097751703,0.7917888641,0.0000000000,0.3030303001
0.0097751703,0.7135874748,0.0000000000,0.2932551193
0.0097751703,0.6158357620,0.0000000000,0.2541544437
0.0097751703,0.5474095821,0.0000000000,0.2248289346
0.0097751703,0.5278592109,0.0000000000,0.2443792819
0.0097751703,0.4789833545,0.0000000000,0.2541544437
0.0097751703,0.4985337257,0.0000000000,0.2443792819
0.0195503416,0.5278592109,0.0000000000,0.1955034160
0.0195503416,0.5376344203,0.0000000000,0.1857282543
0.0195503416,0.6647116661,0.0000000000,0.2150537729
0.0195503416,0.7331378459,0.0000000000,0.2443792819
0.0097751703,0.7135874748,0.0000000000,0.2150537729
0.0097751703,0.6647116661,0.0000000000,0.1759530782
0.0097751703,0.6842619895,0.0000000000,0.1564027309
0.0097751703,0.6744868278,0.0000000000,0.1661779165
0.0097751703,0.6353860855,0.0000000000,0.1661779165
0.0097751703,0.6549364089,0.0000000000,0.1661779165
0.0195503416,0.6256109237,0.0000000000,0.1466275596
0.0195503416,0.6451612472,0.0000000000,0.1368523955
0.0195503416,0.6060606002,0.0000000000,0.1368523955
0.0195503416,0.5865102291,0.0000000000,0.1368523955
0.0195503416,0.5180840492,0.0000000000,0.1466275596
0.0195503416,0.5669599056,0.0000000000,0.1270772218
0.0195503416,0.5474095821,0.0000000000,0.1173020482
0.0097751703,0.5865102291,0.0000000000,0.1173020482
0.0195503416,0.6256109237,0.0000000000,0.1173020482
0.0195503416,0.5669599056,0.0000000000,0.1075268864
0.0195503416,0.5083088874,0.0000000000,0.0977517032
0.0097751703,0.5571847438,0.0000000000,0.0977517032
0.0097751703,0.4985337257,0.0000000000,0.0977517032
0.0097751703,0.4594330310,0.0000000000,0.1075268864
0.0097751703,0.3910068321,0.0000000000,0.0977517032
0.0097751703,0.3519061565,0.0000000000,0.1075268864
0.0195503416,0.3616813421,0.0000000000,0.0879765415
0.0097751703,0.3616813421,0.0000000000,0.0782013654
0.0097751703,0.3128054618,0.0000000000,0.0879765415
0.0097751703,0.3225806236,0.0000000000,0.0879765415
0.0195503416,0.3030303001,0.0000000000,0.0782013654
0.0195503416,0.3616813421,0.0000000000,0.0684261989
0.0195503416,0.3323558330,0.0000000000,0.0586510229
0.0097751703,0.3421309947,0.0000000000,0.0684261989
0.0097751703,0.3519061565,0.0000000000,0.0684261989
0.0097751703,0.3421309947,0.0000000000,0.0782013654
0.0097751703,0.3030303001,0.0000000000,0.0684261989
0.0097751703,0.2932551193,0.0000000000,0.0684261989
0.0097751703,0.2834799575,0.0000000000,0.0684261989
0.0097751703,0.2737047910,0.0000000000,0.0684261989
0.0097751703,0.2443792819,0.0000000000,0.0488758516
0.0097751703,0.2052785873,0.0000000000,0.0391006832
0.0097751703,0.1955034160,0.0000000000,0.0391006832
0.0097751703,0.1857282543,0.0000000000,0.0391006832
0.0097751703,0.1759530782,0.0000000000,0.0391006832
0.0097751703,0.1564027309,0.0000000000,0.0488758516
0.0097751703,0.1466275596,0.0000000000,0.0488758516
0.0097751703,0.1564027309,0.0000000000,0.0488758516
0.0097751703,0.1661779165,0.0000000000,0.0488758516
0.0195503416,0.1466275596,0.0000000000,0.0391006832
0.0097751703,0.1368523955,0.0000000000,0.0293255119
0.0097751703,0.1368523955,0.0000000000,0.0391006832
0.0097751703,0.1270772218,0.0000000000,0.0391006832
0.0097751703,0.1075268864,0.0000000000,0.0293255119
0.0097751703,0.1075268864,0.0000000000,0.0391006832
0.0097751703,0.0879765415,0.0000000000,0.0293255119
0.0097751703,0.0879765415,0.0000000000,0.0195503416
0.0097751703,0.0782013654,0.0000000000,0.0293255119
0.0097751703,0.0782013654,0.0000000000,0.0488758516
0.0097751703,0.0782013654,0.0000000000,0.0684261989
0.0097751703,0.0782013654,0.0000000000,0.0782013654
0.0097751703,0.0879765415,0.0000000000,0.0977517032
0.0097751703,0.1075268864,0.0000000000,0.1173020482
0.0097751703,0.0977517032,0.0000000000,0.1368523955
0.0097751703,0.0782013654,0.0000000000,0.1466275596
0.0097751703,0.0684261989,0.0000000000,0.1368523955
0.0097751703,0.0782013654,0.0000000000,0.2248289346
0.0097751703,0.1075268864,0.0000000000,0.2541544437
0.0097751703,0.1173020482,0.0000000000,0.2932551193
0.0097751703,0.1466275596,0.0000000000,0.3030303001
0.0097751703,0.1564027309,0.0000000000,0.2932551193
0.0097751703,0.1857282543,0.0000000000,0.3128054618
0.0097751703,0.2834799575,0.0000000000,0.3030303001
0.0097751703,0.4007820129,0.0000000000,0.2834799575
0.0097751703,0.4789833545,0.0000000000,0.2932551193
0.0097751703,0.5278592109,0.0000000000,0.3128054618
0.0097751703,0.6158357620,0.0000000000,0.3519061565
0.0097751703,0.6744868278,0.0000000000,0.3812316703
0.0097751703,0.6647116661,0.0000000000,0.4203323364
0.0097751703,0.7233626842,0.0000000000,0.5278592109
0.0097751703,0.8308895111,0.0000000000,0.5767350673
0.0097751703,0.8895405769,0.0000000000,0.6353860855
0.0097751703,0.9188660621,0.0000000000,0.6940371513
0.0097751703,0.8602150917,0.0000000000,0.7917888641
0.0097751703,0.7722384929,0.0000000000,0.7135874748
0.0195503416,0.9775171279,0.0000000000,0.6647116661
0.0195503416,1.0166177749,0.0000000000,0.7429130077
0.0097751703,1.0263929367,0.0000000000,0.7429130077
0.0097751703,1.0263929367,0.0000000000,0.7526881694
0.0097751703,1.0557184219,0.0000000000,0.7038123130
0.0097751703,1.1632453203,0.0000000000,0.6744868278
0.0195503416,1.2218964099,0.0000000000,0.7331378459
0.0195503416,1.1534701585,0.0000000000,0.6549364089
0.0097751703,1.1534701585,0.0000000000,0.6060606002
0.0097751703,1.3685239553,0.0000000000,0.6353860855
0.0097751703,1.2805473804,0.0000000000,0.5767350673
0.0097751703,1.3196481466,0.0000000000,0.4985337257
0.0195503416,1.4076246261,0.0000000000,0.4398827075
0.0195503416,1.2218964099,0.0000000000,0.4203323364
0.0097751703,1.1730204820,0.0000000000,0.3714565038
0.0097751703,1.0850440216,0.0000000000,0.3812316703
0.0097751703,0.9384163856,0.0000000000,0.3812316703
0.0195503416,0.8699902534,0.0000000000,0.3714565038
0.0097751703,0.7820136547,0.0000000000,0.4007820129
0.0195503416,0.7135874748,0.0000000000,0.3910068321
0.0195503416,0.6256109237,0.0000000000,0.3812316703
0.0195503416,0.6647116661,0.0000000000,0.3421309947
0.0195503416,0.7233626842,0.0000000000,0.3225806236
0.0293255119,0.6842619895,0.0000000000,0.3128054618
0.0195503416,0.7135874748,0.0000000000,0.3030303001
0.0195503416,0.7135874748,0.0000000000,0.3030303001
0.0195503416,0.6647116661,0.0000000000,0.3519061565
0.0195503416,0.7429130077,0.0000000000,0.3225806236
0.0195503416,0.6647116661,0.0000000000,0.2932551193
0.0195503416,0.6451612472,0.0000000000,0.2834799575
0.0195503416,0.6158357620,0.0000000000,0.3030303001
0.0097751703,0.6549364089,0.0000000000,0.3225806236
0.0195503416,0.6353860855,0.0000000000,0.3323558330
0.0097751703,0.5571847438,0.0000000000,0.3128054618
0.0097751703,0.5376344203,0.0000000000,0.3128054618
0.0195503416,0.4887585639,0.0000000000,0.2834799575
0.0097751703,0.4789833545,0.0000000000,0.2541544437
0.0195503416,0.4692081928,0.0000000000,0.2541544437
0.0195503416,0.4594330310,0.0000000000,0.2932551193
0.0195503416,0.4594330310,0.0000000000,0.3030303001
0.0097751703,0.4594330310,0.0000000000,0.3030303001
0.0097751703,0.4398827075,0.0000000000,0.2639296054
0.0195503416,0.4203323364,0.0000000000,0.2248289346
0.0293255119,0.3910068321,0.0000000000,0.2150537729
0.0195503416,0.3519061565,0.0000000000,0.2150537729
0.0195503416,0.3421309947,0.0000000000,0.2052785873
0.0391006832,0.3323558330,0.0000000000,0.1955034160
0.0391006832,0.3323558330,0.0000000000,0.1661779165
0.0586510229,0.3128054618,0.0000000000,0.1661779165
0.0586510229,0.2834799575,0.0000000000,0.1661779165
0.0488758516,0.2834799575,0.0000000000,0.1564027309
0.0488758516,0.2834799575,0.0000000000,0.1661779165
0.0488758516,0.2443792819,0.0000000000,0.1661779165
0.0488758516,0.2737047910,0.0000000000,0.1466275596
0.0488758516,0.2737047910,0.0000000000,0.1270772218
0.0488758516,0.2834799575,0.0000000000,0.1173020482
0.0488758516,0.2639296054,0.0000000000,0.1270772218
0.0488758516,0.2248289346,0.0000000000,0.1368523955
0.0488758516,0.2541544437,0.0000000000,0.1270772218
0.0586510229,0.2248289346,0.0000000000,0.1173020482
0.0586510229,0.2052785873,0.0000000000,0.1075268864
0.0586510229,0.2150537729,0.0000000000,0.0977517032
0.0586510229,0.2150537729,0.0000000000,0.0782013654
0.0586510229,0.2052785873,0.0000000000,0.0977517032
0.0586510229,0.2150537729,0.0000000000,0.0879765415
0.0586510229,0.2150537729,0.0000000000,0.0977517032
0.0586510229,0.2248289346,0.0000000000,0.0879765415
0.0586510229,0.1955034160,0.0000000000,0.0879765415
0.0586510229,0.1661779165,0.0000000000,0.0684261989
0.0488758516,0.2150537729,0.0000000000,0.0782013654
0.0488758516,0.1857282543,0.0000000000,0.0977517032
0.0586510229,0.1661779165,0.0000000000,0.0879765415
0.0488758516,0.1564027309,0.0000000000,0.0879765415
0.0488758516,0.1564027309,0.0000000000,0.0782013654
0.0488758516,0.1368523955,0.0000000000,0.0684261989
0.0488758516,0.1270772218,0.0000000000,0.0586510229
0.0488758516,0.1270772218,0.0000000000,0.0488758516
0.0488758516,0.1270772218,0.0000000000,0.0488758516
0.0586510229,0.1173020482,0.0000000000,0.0391006832
0.0488758516,0.1075268864,0.0000000000,0.0391006832
0.0488758516,0.0977517032,0.0000000000,0.0488758516
0.0488758516,0.1368523955,0.0000000000,0.0586510229
0.0488758516,0.1270772218,0.0000000000,0.0586510229
0.0488758516,0.1173020482,0.0000000000,0.0586510229
0.0488758516,0.0977517032,0.0000000000,0.0782013654
0.0488758516,0.0782013654,0.0000000000,0.0782013654
0.0488758516,0.0684261989,0.0000000000,0.0684261989
0.0488758516,0.0782013654,0.0000000000,0.0586510229
0.0488758516,0.0879765415,0.0000000000,0.0684261989
0.0488758516,0.0782013654,0.0000000000,0.0684261989
0.0391006832,0.0782013654,0.0000000000,0.0684261989
0.0391006832,0.0684261989,0.0000000000,0.0684261989
0.0488758516,0.0684261989,0.0000000000,0.0977517032
0.0488758516,0.0586510229,0.0000000000,0.1368523955
0.0488758516,0.0879765415,0.0000000000,0.1661779165
0.0488758516,0.0879765415,0.0000000000,0.1759530782
0.0391006832,0.0977517032,0.0000000000,0.1759530782
0.0488758516,0.0879765415,0.0000000000,0.2443792819
0.0391006832,0.0977517032,0.0000000000,0.2248289346
0.0391006832,0.1075268864,0.0000000000,0.2346040964
0.0293255119,0.1173020482,0.0000000000,0.2737047910
0.0488758516,0.1270772218,0.0000000000,0.2541544437
0.0293255119,0.1564027309,0.0000000000,0.2932551193
0.0293255119,0.2052785873,0.0000000000,0.2639296054
0.0293255119,0.2248289346,0.0000000000,0.3030303001
0.0293255119,0.3128054618,0.0000000000,0.3128054618
0.0293255119,0.4301075458,0.0000000000,0.3225806236
0.0391006832,0.5767350673,0.0000000000,0.3519061565
0.0293255119,0.6647116661,0.0000000000,0.3910068321
0.0293255119,0.7722384929,0.0000000000,0.4105571746
0.0391006832,0.9384163856,0.0000000000,0.4007820129
0.0293255119,0.9384163856,0.0000000000,0.4203323364
0.0391006832,0.9970674514,0.0000000000,0.5865102291
0.0293255119,0.9579667091,0.0000000000,0.7820136547
0.0293255119,0.8797654151,0.0000000000,0.7429130077
0.0293255119,0.8699902534,0.0000000000,0.7135874748
0.0293255119,0.8797654151,0.0000000000,0.7429130077
0.0293255119,1.0361680984,0.0000000000,0.7429130077
0.0293255119,1.0948191833,0.0000000000,0.7135874748
0.0293255119,1.1339198350,0.0000000000,0.7722384929
0.0391006832,1.1730204820,0.0000000000,0.7429130077
0.0391006832,1.1730204820,0.0000000000,0.6744868278
0.0488758516,1.1827956390,0.0000000000,0.5865102291
0.0488758516,1.2805473804,0.0000000000,0.6158357620
0.0488758516,1.4760508537,0.0000000000,0.5962854385
0.0586510229,1.3196481466,0.0000000000,0.5865102291
0.0782013654,1.3391984701,0.0000000000,0.6060606002
0.1075268864,1.4173997879,0.0000000000,0.5767350673
0.0977517032,1.2316715717,0.0000000000,0.5376344203
0.0977517032,1.0948191833,0.0000000000,0.5865102291
0.0977517032,0.9677418708,0.0000000000,0.5474095821
0.0879765415,0.9579667091,0.0000000000,0.4887585639
0.0782013654,0.9090909004,0.0000000000,0.5180840492
0.0684261989,0.7624633312,0.0000000000,0.4985337257
0.0879765415,0.6256109237,0.0000000000,0.5180840492
0.1075268864,0.6353860855,0.0000000000,0.4985337257
0.1075268864,0.5865102291,0.0000000000,0.4398827075
0.0977517032,0.5571847438,0.0000000000,0.3910068321
0.1173020482,0.5278592109,0.0000000000,0.4007820129
0.1270772218,0.4789833545,0.0000000000,0.4887585639
0.1466275596,0.4594330310,0.0000000000,0.4594330310
0.1368523955,0.4692081928,0.0000000000,0.4398827075
0.1270772218,0.5376344203,0.0000000000,0.4301075458
0.1466275596,0.5278592109,0.0000000000,0.4203323364
0.1270772218,0.5767350673,0.0000000000,0.4594330310
0.1270772218,0.5474095821,0.0000000000,0.4203323364
0.1075268864,0.4887585639,0.0000000000,0.3616813421
0.0879765415,0.7233626842,0.0000000000,0.4007820129
0.0782013654,0.6647116661,0.0000000000,0.4007820129
0.0684261989,0.8015640258,0.0000000000,0.4007820129
0.0586510229,0.8504399299,0.0000000000,0.3714565038
0.0586510229,0.8895405769,0.0000000000,0.3616813421
0.0488758516,0.8504399299,0.0000000000,0.3910068321
0.0586510229,0.7624633312,0.0000000000,0.3519061565
0.0488758516,0.7135874748,0.0000000000,0.3225806236
0.0586510229,0.6842619895,0.0000000000,0.2932551193
0.0586510229,0.6158357620,0.0000000000,0.2639296054
0.0782013654,0.6842619895,0.0000000000,0.2834799575
0.0782013654,0.6842619895,0.0000000000,0.2639296054
0.0782013654,0.6647116661,0.0000000000,0.2541544437
0.0879765415,0.6647116661,0.0000000000,0.2248289346
0.0782013654,0.7135874748,0.0000000000,0.2248289346
0.0782013654,0.7038123130,0.0000000000,0.2052785873
0.0586510229,0.5962854385,0.0000000000,0.1955034160
0.0586510229,0.5669599056,0.0000000000,0.1857282543
0.0586510229,0.5278592109,0.0000000000,0.1564027309
0.0488758516,0.4985337257,0.0000000000,0.1955034160
0.0488758516,0.4594330310,0.0000000000,0.1857282543
0.0488758516,0.4203323364,0.0000000000,0.1857282543
0.0586510229,0.4105571746,0.0000000000,0.1759530782
0.0488758516,0.4007820129,0.0000000000,0.1857282543
0.0586510229,0.3714565038,0.0000000000,0.2150537729
0.0488758516,0.3323558330,0.0000000000,0.2052785873
0.0586510229,0.4301075458,0.0000000000,0.1955034160
0.0488758516,0.3812316703,0.0000000000,0.1759530782
0.0391006832,0.3519061565,0.0000000000,0.1857282543
0.0391006832,0.3128054618,0.0000000000,0.1955034160
0.0391006832,0.3030303001,0.0000000000,0.2052785873
0.0391006832,0.3421309947,0.0000000000,0.2248289346
0.0293255119,0.3323558330,0.0000000000,0.2052785873
0.0293255119,0.3128054618,0.0000000000,0.1955034160
0.0293255119,0.3030303001,0.0000000000,0.1564027309
0.0293255119,0.2834799575,0.0000000000,0.1661779165
0.0293255119,0.3030303001,0.0000000000,0.1955034160
0.0195503416,0.2639296054,0.0000000000,0.1955034160
0.0195503416,0.2834799575,0.0000000000,0.1857282543
0.0195503416,0.2639296054,0.0000000000,0.1759530782
0.0195503416,0.2639296054,0.0000000000,0.1661779165
0.0195503416,0.2541544437,0.0000000000,0.1564027309
0.0195503416,0.2346040964,0.0000000000,0.1466275596
0.0195503416,0.2150537729,0.0000000000,0.1466275596
0.0195503416,0.2150537729,0.0000000000,0.1368523955
0.0293255119,0.1955034160,0.0000000000,0.1173020482
0.0293255119,0.2248289346,0.0000000000,0.0977517032
0.0195503416,0.2248289346,0.0000000000,0.1075268864
0.0195503416,0.2248289346,0.0000000000,0.1173020482
0.0195503416,0.2052785873,0.0000000000,0.1075268864
0.0195503416,0.1857282543,0.0000000000,0.1075268864
0.0293255119,0.1857282543,0.0000000000,0.0977517032
0.0195503416,0.1857282543,0.0000000000,0.0879765415
0.0097751703,0.1759530782,0.0000000000,0.0879765415
0.0195503416,0.1661779165,0.0000000000,0.1368523955
0.0097751703,0.1661779165,0.0000000000,0.1270772218
0.0195503416,0.1564027309,0.0000000000,0.1075268864
0.0195503416,0.1368523955,0.0000000000,0.0977517032
0.0097751703,0.1173020482,0.0000000000,0.1270772218
0.0097751703,0.1075268864,0.0000000000,0.1466275596
0.0097751703,0.1270772218,0.0000000000,0.1270772218
0.0097751703,0.1466275596,0.0000000000,0.1270772218
0.0097751703,0.1270772218,0.0000000000,0.0977517032
0.0097751703,0.1173020482,0.0000000000,0.1270772218
0.0097751703,0.0977517032,0.0000000000,0.1368523955
0.0097751703,0.0879765415,0.0000000000,0.1661779165
0.0097751703,0.0879765415,0.0000000000,0.1466275596
0.0097751703,0.1075268864,0.0000000000,0.1270772218
0.0097751703,0.0977517032,0.0000000000,0.1173020482
0.0097751703,0.0879765415,0.0000000000,0.1270772218
0.0097751703,0.0879765415,0.0000000000,0.1173020482
0.0097751703,0.0782013654,0.0000000000,0.1173020482
0.0097751703,0.0684261989,0.0000000000,0.0977517032
0.0097751703,0.0879765415,0.0000000000,0.1173020482
0.0195503416,0.0977517032,0.0000000000,0.1270772218
0.0097751703,0.1173020482,0.0000000000,0.1466275596
0.0097751703,0.1075268864,0.0000000000,0.1368523955
0.0097751703,0.1173020482,0.0000000000,0.1466275596
0.0195503416,0.1466275596,0.0000000000,0.1564027309
0.0195503416,0.1368523955,0.0000000000,0.1759530782
0.0195503416,0.2150537729,0.0000000000,0.1466275596
0.0195503416,0.2737047910,0.0000000000,0.1368523955
0.0195503416,0.4007820129,0.0000000000,0.1564027309
0.0195503416,0.4692081928,0.0000000000,0.1564027309
0.0195503416,0.6256109237,0.0000000000,0.1466275596
0.0195503416,0.7331378459,0.0000000000,0.1661779165
0.0195503416,0.7624633312,0.0000000000,0.1759530782
0.0195503416,0.8797654151,0.0000000000,0.1661779165
0.0195503416,0.9286412239,0.0000000000,0.1661779165
0.0097751703,1.3978494453,0.0000000000,0.1661779165
0.0097751703,1.4565005302,0.0000000000,0.1759530782
0.0097751703,1.5053763389,0.0000000000,0.1661779165
0.0097751703,1.3880742835,0.0000000000,0.1857282543
0.0195503416,1.4173997879,0.0000000000,0.2150537729
0.0195503416,1.4076246261,0.0000000000,0.2052785873
0.0195503416,1.3782991170,0.0000000000,0.1955034160
0.0195503416,1.6031280517,0.0000000000,0.2248289346
0.0195503416,1.9648094177,0.0000000000,0.3030303001
0.0195503416,1.7790811061,0.0000000000,0.3225806236
0.0195503416,1.7497556209,0.0000000000,0.3421309947
0.0195503416,1.7106549739,0.0000000000,0.3616813421
0.0195503416,1.5738025665,0.0000000000,0.4203323364
0.0195503416,1.5640273094,0.0000000000,0.4007820129
0.0195503416,1.3978494453,0.0000000000,0.4692081928
0.0195503416,1.3587487936,0.0000000000,0.4301075458
0.0195503416,1.2414467334,0.0000000000,0.4203323364
0.0293255119,1.3489736318,0.0000000000,0.4301075458
0.0195503416,1.1632453203,0.0000000000,0.4692081928
0.0195503416,0.9970674514,0.0000000000,0.4398827075
0.0195503416,0.8895405769,0.0000000000,0.4692081928
0.0195503416,0.7624633312,0.0000000000,0.4887585639
0.0195503416,0.6744868278,0.0000000000,0.4985337257
0.0097751703,0.6256109237,0.0000000000,0.4789833545
0.0195503416,0.6158357620,0.0000000000,0.5278592109
0.0097751703,0.5669599056,0.0000000000,0.5767350673
0.0097751703,0.7331378459,0.0000000000,0.5474095821
0.0195503416,0.7624633312,0.0000000000,0.4887585639
0.0195503416,0.7135874748,0.0000000000,0.5571847438
0.0293255119,0.7526881694,0.0000000000,0.5865102291
0.0195503416,0.6842619895,0.0000000000,0.5865102291
0.0293255119,0.6842619895,0.0000000000,0.5767350673
0.0293255119,0.7233626842,0.0000000000,0.5767350673
0.0195503416,0.6549364089,0.0000000000,0.5865102291
0.0293255119,0.6451612472,0.0000000000,0.5180840492
0.0097751703,0.6451612472,0.0000000000,0.5083088874
0.0097751703,0.6549364089,0.0000000000,0.5278592109
0.0195503416,0.6256109237,0.0000000000,0.5278592109
0.0195503416,0.7135874748,0.0000000000,0.4887585639
0.0195503416,0.7233626842,0.0000000000,0.4594330310
0.0195503416,0.6158357620,0.0000000000,0.4692081928
0.0195503416,0.6353860855,0.0000000000,0.4594330310
0.0195503416,0.6647116661,0.0000000000,0.4985337257
0.0195503416,0.6940371513,0.0000000000,0.4789833545
0.0195503416,0.7429130077,0.0000000000,0.4496578693
0.0195503416,0.6940371513,0.0000000000,0.4594330310
0.0195503416,0.6353860855,0.0000000000,0.4105571746
0.0195503416,0.6549364089,0.0000000000,0.3910068321
0.0195503416,0.6158357620,0.0000000000,0.4105571746
0.0195503416,0.6158357620,0.0000000000,0.4007820129
0.0195503416,0.5669599056,0.0000000000,0.4105571746
0.0195503416,0.5180840492,0.0000000000,0.3910068321
0.0195503416,0.4789833545,0.0000000000,0.3714565038
0.0195503416,0.4105571746,0.0000000000,0.3616813421
0.0195503416,0.4203323364,0.0000000000,0.3225806236
0.0195503416,0.4496578693,0.0000000000,0.2834799575
0.0195503416,0.4007820129,0.0000000000,0.3421309947
0.0195503416,0.3616813421,0.0000000000,0.3519061565
0.0195503416,0.4398827075,0.0000000000,0.3128054618
0.0097751703,0.4789833545,0.0000000000,0.2737047910
0.0097751703,0.4203323364,0.0000000000,0.2639296054
0.0097751703,0.3519061565,0.0000000000,0.2541544437
0.0097751703,0.4398827075,0.0000000000,0.2737047910
0.0195503416,0.4105571746,0.0000000000,0.2834799575
0.0195503416,0.3812316703,0.0000000000,0.2541544437
0.0097751703,0.3421309947,0.0000000000,0.2248289346
0.0195503416,0.3225806236,0.0000000000,0.2443792819
0.0097751703,0.3519061565,0.0000000000,0.2443792819
0.0097751703,0.3519061565,0.0000000000,0.2541544437
0.0097751703,0.3323558330,0.0000000000,0.2150537729
0.0195503416,0.2834799575,0.0000000000,0.2052785873
0.0097751703,0.2737047910,0.0000000000,0.1955034160
0.0195503416,0.2932551193,0.0000000000,0.1955034160
0.0195503416,0.2541544437,0.0000000000,0.1661779165
0.0097751703,0.2932551193,0.0000000000,0.1661779165
0.0195503416,0.3030303001,0.0000000000,0.1661779165
0.0195503416,0.3030303001,0.0000000000,0.2541544437
0.0195503416,0.2541544437,0.0000000000,0.2150537729
0.0097751703,0.2541544437,0.0000000000,0.1857282543
0.0097751703,0.2346040964,0.0000000000,0.1759530782
0.0097751703,0.2150537729,0.0000000000,0.1564027309
0.0097751703,0.1955034160,0.0000000000,0.1661779165
0.0195503416,0.1857282543,0.0000000000,0.1564027309
0.0097751703,0.1857282543,0.0000000000,0.1466275596
0.0097751703,0.1661779165,0.0000000000,0.1466275596
0.0097751703,0.1661779165,0.0000000000,0.1368523955
0.0097751703,0.1661779165,0.0000000000,0.1466275596
0.0097751703,0.1564027309,0.0000000000,0.1466275596
0.0097751703,0.1466275596,0.0000000000,0.1368523955
0.0097751703,0.1466275596,0.0000000000,0.1759530782
0.0097751703,0.1466275596,0.0000000000,0.1466275596
0.0097751703,0.1173020482,0.0000000000,0.1368523955
0.0097751703,0.1270772218,0.0000000000,0.1270772218
0.0097751703,0.1270772218,0.0000000000,0.1270772218
0.0097751703,0.1173020482,0.0000000000,0.1075268864
0.0097751703,0.0977517032,0.0000000000,0.0977517032
0.0097751703,0.0879765415,0.0000000000,0.0782013654
0.0097751703,0.0879765415,0.0000000000,0.0977517032
0.0097751703,0.0782013654,0.0000000000,0.1075268864
0.0097751703,0.0977517032,0.0000000000,0.1075268864
0.0097751703,0.1075268864,0.0000000000,0.1173020482
0.0097751703,0.1075268864,0.0000000000,0.0977517032
0.0097751703,0.1075268864,0.0000000000,0.0879765415
0.0195503416,0.1661779165,0.0000000000,0.0879765415
0.0195503416,0.2346040964,0.0000000000,0.0977517032
0.0195503416,0.4594330310,0.0000000000,0.0977517032
0.0195503416,0.4496578693,0.0000000000,0.0879765415
0.0097751703,0.6842619895,0.0000000000,0.0782013654
0.0097751703,0.8504399299,0.0000000000,0.0684261989
0.0097751703,0.9090909004,0.0000000000,0.0684261989
