0.0097752,0.13685,0.068426,0.28348
0.76246,1.1339,0.38123,0.70381
0.63539,0.90909,0.38123,0.88954
0.52786,0.73314,0.37146,0.95797
0.43988,0.60606,0.37146,0.97752
0.36168,0.50831,0.34213,0.91887
0.30303,0.43011,0.32258,0.80156
0.2737,0.36168,0.39101,0.68426
0.22483,0.30303,0.38123,0.60606
0.1955,0.25415,0.34213,0.61584
0.1564,0.21505,0.32258,0.60606
0.13685,0.20528,0.33236,0.57674
0.12708,0.18573,0.34213,0.68426
0.1173,0.16618,0.34213,0.72336
0.097752,0.14663,0.35191,0.73314
0.097752,0.13685,0.36168,0.64516
0.097752,0.1173,0.33236,0.69404
0.097752,0.1173,0.35191,0.64516
0.10753,0.10753,0.30303,0.60606
0.10753,0.097752,0.32258,0.54741
0.10753,0.097752,0.33236,0.50831
0.087977,0.097752,0.33236,0.49853
0.078201,0.087977,0.33236,0.55718
0.087977,0.087977,0.47898,0.56696
0.097752,0.078201,0.42033,0.73314
0.087977,0.068426,0.40078,0.75269
0.078201,0.068426,0.40078,0.75269
0.097752,0.078201,0.41056,0.72336
0.087977,0.068426,0.36168,0.66471
0.10753,0.068426,0.31281,0.70381
0.1173,0.068426,0.31281,0.79179
0.10753,0.068426,0.31281,1.0948
0.12708,0.058651,0.28348,1.1339
0.10753,0.048876,0.24438,1.2512
0.10753,0.048876,0.21505,1.4174
0.10753,0.048876,0.20528,1.5152
0.097752,0.058651,0.17595,1.4467
0.078201,0.058651,0.16618,1.3881
0.078201,0.058651,0.1564,1.3881
0.087977,0.058651,0.21505,1.2903
0.087977,0.048876,0.20528,1.4076
0.078201,0.048876,0.20528,1.2414
0.068426,0.058651,0.18573,1.0362
0.087977,0.068426,0.1955,0.93842
0.097752,0.068426,0.21505,0.87977
0.087977,0.068426,0.18573,0.74291
0.097752,0.068426,0.25415,0.65494
0.087977,0.068426,0.2737,0.69404
0.087977,0.058651,0.2737,0.60606
0.087977,0.068426,0.26393,0.56696
0.078201,0.058651,0.26393,0.54741
0.078201,0.048876,0.2346,0.50831
0.068426,0.058651,0.21505,0.43011
0.058651,0.058651,0.1955,0.37146
0.058651,0.068426,0.1955,0.32258
0.058651,0.078201,0.1955,0.31281
0.039101,0.068426,0.17595,0.2737
0.029326,0.068426,0.1564,0.2737
0.029326,0.058651,0.1564,0.26393
0.029326,0.058651,0.1564,0.24438
0.01955,0.058651,0.14663,0.22483
0.0097752,0.048876,0.1564,0.20528
0.0097752,0.068426,0.14663,0.24438
0.0097752,0.068426,0.14663,0.26393
0.0097752,0.068426,0.1564,0.2737
0.0097752,0.078201,0.1564,0.26393
0.0097752,0.068426,0.14663,0.28348
0.0097752,0.068426,0.14663,0.30303
0.0097752,0.058651,0.14663,0.28348
0,0.058651,0.1564,0.29326
0,0.058651,0.16618,0.30303
0.0097752,0.058651,0.1564,0.2737
0.0097752,0.058651,0.17595,0.24438
0.0097752,0.058651,0.17595,0.25415
0,0.058651,0.16618,0.2346
0.0097752,0.058651,0.16618,0.21505
0.0097752,0.058651,0.16618,0.21505
0.01955,0.058651,0.1564,0.22483
0.01955,0.058651,0.16618,0.22483
0.01955,0.068426,0.20528,0.2346
0.01955,0.058651,0.18573,0.2346
0.01955,0.068426,0.17595,0.20528
0.01955,0.068426,0.1955,0.1955
0.01955,0.068426,0.17595,0.17595
0.029326,0.078201,0.17595,0.17595
0.029326,0.068426,0.16618,0.25415
0.01955,0.058651,0.14663,0.2346
0.029326,0.058651,0.18573,0.21505
0.029326,0.048876,0.16618,0.1955
0.029326,0.058651,0.1564,0.20528
0.029326,0.048876,0.16618,0.22483
0.01955,0.048876,0.16618,0.22483
0.01955,0.058651,0.16618,0.25415
0.01955,0.058651,0.16618,0.26393
0.029326,0.058651,0.16618,0.24438
0.029326,0.048876,0.14663,0.24438
0.01955,0.058651,0.17595,0.24438
0.01955,0.058651,0.1564,0.24438
0.0097752,0.058651,0.1564,0.24438
0.0097752,0.058651,0.1955,0.22483
0.01955,0.058651,0.2346,0.20528
0.01955,0.068426,0.20528,0.20528
0.0097752,0.058651,0.18573,0.22483
0.0097752,0.058651,0.1955,0.21505
0.01955,0.058651,0.16618,0.21505
0.01955,0.058651,0.1564,0.2737
0.0097752,0.058651,0.14663,0.29326
0.0097752,0.058651,0.14663,0.30303
0.0097752,0.068426,0.14663,0.31281
0.0097752,0.068426,0.13685,0.29326
0.0097752,0.078201,0.13685,0.25415
0.0097752,0.068426,0.12708,0.2737
0.0097752,0.087977,0.13685,0.25415
0,0.10753,0.13685,0.22483
0,0.12708,0.1173,0.25415
0,0.1173,0.10753,0.2346
0,0.13685,0.097752,0.2346
0,0.13685,0.097752,0.25415
0,0.14663,0.097752,0.2346
0,0.14663,0.097752,0.20528
0,0.1564,0.1173,0.18573
0,0.16618,0.13685,0.1955
0.0097752,0.18573,0.1173,0.21505
0.0097752,0.16618,0.1173,0.21505
0.0097752,0.16618,0.1173,0.20528
0,0.17595,0.12708,0.2346
0.0097752,0.18573,0.1173,0.2346
0.0097752,0.1955,0.10753,0.21505
0,0.1955,0.10753,0.1955
0,0.18573,0.097752,0.18573
0,0.16618,0.097752,0.18573
0,0.16618,0.10753,0.17595
0,0.16618,0.1173,0.1564
0,0.17595,0.13685,0.17595
0,0.1564,0.12708,0.16618
0,0.1564,0.12708,0.16618
0,0.16618,0.1173,0.16618
0,0.14663,0.13685,0.17595
0,0.13685,0.1564,0.17595
0,0.14663,0.14663,0.1955
0,0.14663,0.12708,0.18573
0,0.1564,0.12708,0.17595
0,0.16618,0.12708,0.16618
0,0.1564,0.1173,0.14663
0,0.14663,0.097752,0.12708
0,0.1955,0.097752,0.12708
0,0.1955,0.097752,0.10753
0,0.17595,0.087977,0.1173
0,0.17595,0.087977,0.10753
0,0.18573,0.097752,0.097752
0,0.22483,0.087977,0.087977
0,0.22483,0.087977,0.097752
0,0.24438,0.097752,0.078201
0,0.21505,0.087977,0.078201
0,0.22483,0.087977,0.068426
0,0.25415,0.087977,0.097752
0,0.25415,0.087977,0.087977
0,0.24438,0.097752,0.087977
0,0.21505,0.097752,0.087977
0,0.24438,0.097752,0.078201
0,0.29326,0.10753,0.078201
0,0.26393,0.10753,0.078201
0,0.26393,0.10753,0.087977
0,0.2737,0.10753,0.087977
0,0.25415,0.087977,0.1173
0,0.21505,0.087977,0.10753
0,0.22483,0.087977,0.10753
0,0.22483,0.097752,0.097752
0,0.24438,0.087977,0.097752
0,0.32258,0.10753,0.097752
0,0.46921,0.10753,0.087977
0,0.56696,0.097752,0.087977
0,0.53763,0.087977,0.078201
0,0.60606,0.087977,0.078201
0,0.55718,0.087977,0.078201
0,0.47898,0.087977,0.068426
0,0.43011,0.097752,0.068426
0,0.41056,0.087977,0.068426
0,0.37146,0.078201,0.068426
0,0.31281,0.087977,0.068426
0,0.2737,0.10753,0.058651
0,0.22483,0.097752,0.048876
0,0.20528,0.097752,0.048876
0,0.17595,0.10753,0.058651
0,0.14663,0.10753,0.068426
0,0.14663,0.097752,0.068426
0,0.12708,0.097752,0.068426
0,0.1173,0.087977,0.058651
0,0.097752,0.097752,0.048876
0,0.097752,0.10753,0.048876
0,0.097752,0.097752,0.048876
0,0.087977,0.097752,0.078201
0,0.087977,0.087977,0.097752
0,0.078201,0.087977,0.087977
0,0.087977,0.087977,0.078201
0,0.087977,0.078201,0.078201
0,0.078201,0.078201,0.068426
0,0.078201,0.087977,0.058651
0,0.087977,0.10753,0.058651
0,0.087977,0.097752,0.048876
0,0.10753,0.10753,0.048876
0,0.097752,0.10753,0.058651
0,0.10753,0.10753,0.068426
0,0.1173,0.1173,0.058651
0,0.10753,0.097752,0.058651
0,0.12708,0.097752,0.058651
0,0.1173,0.087977,0.058651
0,0.1173,0.087977,0.068426
0,0.1173,0.087977,0.068426
0,0.10753,0.078201,0.058651
0,0.10753,0.078201,0.039101
0,0.1173,0.097752,0.029326
0,0.10753,0.10753,0.029326
0,0.10753,0.10753,0.029326
0,0.10753,0.087977,0.029326
0,0.1173,0.12708,0.029326
0,0.10753,0.097752,0.029326
0,0.10753,0.13685,0.029326
0,0.097752,0.12708,0.029326
0,0.097752,0.1173,0.039101
0,0.097752,0.10753,0.029326
0,0.10753,0.097752,0.029326
0,0.1173,0.097752,0.01955
0,0.12708,0.097752,0.01955
0,0.1173,0.087977,0.01955
0,0.13685,0.097752,0.01955
0,0.1564,0.087977,0.029326
0,0.14663,0.087977,0.029326
0,0.13685,0.087977,0.029326
0,0.14663,0.087977,0.029326
0,0.14663,0.087977,0.029326
0,0.14663,0.087977,0.039101
0,0.14663,0.087977,0.039101
0,0.14663,0.078201,0.039101
0,0.13685,0.078201,0.039101
0,0.12708,0.078201,0.048876
0,0.1173,0.068426,0.039101
0,0.1173,0.078201,0.039101
0,0.097752,0.078201,0.029326
0,0.097752,0.068426,0.029326
0,0.087977,0.078201,0.029326
0,0.097752,0.078201,0.029326
0,0.097752,0.078201,0.01955
0,0.097752,0.078201,0.01955
0,0.097752,0.097752,0.01955
0.0097752,0.097752,0.087977,0.01955
0.0097752,0.097752,0.097752,0.01955
0.01955,0.10753,0.087977,0.01955
0.01955,0.10753,0.087977,0.029326
0.029326,0.10753,0.087977,0.01955
0.01955,0.10753,0.078201,0.01955
0.01955,0.097752,0.078201,0.01955
0.029326,0.097752,0.068426,0.01955
0.029326,0.10753,0.078201,0.01955
0.039101,0.097752,0.087977,0.01955
0.058651,0.097752,0.078201,0.01955
0.058651,0.097752,0.068426,0.01955
0.058651,0.10753,0.078201,0.01955
0.048876,0.10753,0.068426,0.029326
0.068426,0.14663,0.078201,0.029326
0.078201,0.13685,0.078201,0.029326
0.10753,0.1173,0.078201,0.029326
0.097752,0.1173,0.078201,0.029326
0.097752,0.13685,0.078201,0.029326
0.097752,0.12708,0.078201,0.029326
0.087977,0.1173,0.068426,0.029326
0.097752,0.097752,0.097752,0.029326
0.087977,0.10753,0.087977,0.01955
0.12708,0.10753,0.087977,0.01955
0.12708,0.097752,0.097752,0.029326
0.12708,0.097752,0.097752,0.029326
0.17595,0.087977,0.10753,0.029326
0.16618,0.097752,0.12708,0.01955
0.17595,0.097752,0.1173,0.029326
0.20528,0.087977,0.12708,0.029326
0.20528,0.087977,0.14663,0.01955
0.18573,0.087977,0.14663,0.01955
0.16618,0.078201,0.13685,0.029326
0.1564,0.087977,0.14663,0.029326
0.17595,0.078201,0.16618,0.029326
0.1955,0.087977,0.17595,0.029326
0.24438,0.078201,0.17595,0.029326
0.24438,0.087977,0.1955,0.029326
0.24438,0.087977,0.21505,0.029326
0.26393,0.078201,0.22483,0.029326
0.30303,0.068426,0.22483,0.029326
0.29326,0.068426,0.20528,0.039101
0.29326,0.068426,0.20528,0.029326
0.30303,0.058651,0.21505,0.029326
0.28348,0.058651,0.20528,0.01955
0.30303,0.068426,0.1955,0.029326
0.28348,0.068426,0.22483,0.01955
0.24438,0.068426,0.21505,0.01955
0.29326,0.058651,0.20528,0.01955
0.40078,0.068426,0.22483,0.01955
0.42033,0.068426,0.22483,0.01955
0.47898,0.068426,0.24438,0.01955
0.45943,0.068426,0.24438,0.01955
0.43988,0.058651,0.2346,0.01955
0.46921,0.068426,0.2346,0.029326
0.54741,0.068426,0.22483,0.029326
0.52786,0.058651,0.22483,0.029326
0.60606,0.058651,0.2346,0.029326
0.61584,0.058651,0.21505,0.029326
0.61584,0.058651,0.20528,0.029326
0.58651,0.058651,0.20528,0.01955
0.51808,0.068426,0.1955,0.029326
0.47898,0.078201,0.22483,0.01955
0.43011,0.078201,0.2346,0.01955
0.37146,0.078201,0.2346,0.029326
0.32258,0.078201,0.24438,0.029326
0.2737,0.078201,0.21505,0.029326
0.24438,0.068426,0.20528,0.029326
0.2346,0.068426,0.22483,0.029326
0.20528,0.068426,0.20528,0.029326
0.17595,0.068426,0.20528,0.029326
0.16618,0.068426,0.20528,0.029326
0.1564,0.068426,0.20528,0.029326
0.14663,0.058651,0.20528,0.029326
0.12708,0.058651,0.26393,0.029326
0.12708,0.058651,0.2346,0.029326
0.10753,0.058651,0.2346,0.01955
0.097752,0.058651,0.22483,0.01955
0.12708,0.058651,0.22483,0.01955
0.12708,0.068426,0.22483,0.01955
0.1173,0.058651,0.25415,0.01955
0.10753,0.068426,0.21505,0.01955
0.12708,0.058651,0.22483,0.01955
0.10753,0.058651,0.22483,0.01955
0.087977,0.068426,0.21505,0.01955
0.10753,0.078201,0.20528,0.029326
0.097752,0.078201,0.21505,0.01955
0.097752,0.078201,0.21505,0.01955
0.10753,0.078201,0.1955,0.01955
0.1173,0.078201,0.18573,0.01955
0.12708,0.078201,0.1955,0.01955
0.1173,0.078201,0.17595,0.01955
0.1173,0.068426,0.1564,0.01955
0.1173,0.068426,0.16618,0.01955
0.12708,0.058651,0.16618,0.01955
0.1173,0.048876,0.16618,0.01955
0.1173,0.048876,0.16618,0.01955
0.1173,0.048876,0.14663,0.01955
0.10753,0.058651,0.14663,0.01955
0.087977,0.068426,0.14663,0.029326
0.078201,0.058651,0.1564,0.01955
0.078201,0.058651,0.1564,0.01955
0.078201,0.058651,0.1564,0.029326
0.078201,0.048876,0.17595,0.029326
0.087977,0.048876,0.16618,0.039101
0.087977,0.048876,0.17595,0.048876
0.097752,0.048876,0.1564,0.087977
0.10753,0.058651,0.17595,0.10753
0.10753,0.058651,0.16618,0.12708
0.10753,0.048876,0.16618,0.1173
0.097752,0.048876,0.18573,0.13685
0.097752,0.048876,0.17595,0.13685
0.087977,0.048876,0.17595,0.13685
0.097752,0.058651,0.16618,0.16618
0.087977,0.048876,0.1564,0.20528
0.087977,0.058651,0.1564,0.26393
0.097752,0.048876,0.14663,0.29326
0.087977,0.048876,0.13685,0.28348
0.078201,0.058651,0.14663,0.2737
0.087977,0.048876,0.14663,0.26393
0.087977,0.048876,0.13685,0.25415
0.087977,0.048876,0.14663,0.2346
0.078201,0.048876,0.13685,0.2346
0.087977,0.058651,0.13685,0.24438
0.087977,0.048876,0.14663,0.29326
0.097752,0.048876,0.13685,0.31281
0.1173,0.058651,0.1564,0.34213
0.10753,0.048876,0.1564,0.37146
0.097752,0.048876,0.13685,0.38123
0.087977,0.048876,0.13685,0.46921
0.068426,0.048876,0.12708,0.47898
0.068426,0.048876,0.12708,0.45943
0.078201,0.048876,0.1173,0.48876
0.068426,0.048876,0.10753,0.45943
0.068426,0.039101,0.1173,0.49853
0.068426,0.039101,0.12708,0.45943
0.068426,0.039101,0.1173,0.46921
0.058651,0.039101,0.10753,0.49853
0.058651,0.039101,0.097752,0.55718
0.058651,0.039101,0.12708,0.59629
0.058651,0.048876,0.12708,0.71359
0.058651,0.048876,0.12708,0.69404
0.048876,0.048876,0.12708,0.68426
0.048876,0.048876,0.1173,0.67449
0.048876,0.058651,0.1173,0.89932
0.048876,0.048876,0.1173,0.77224
0.039101,0.048876,0.10753,0.68426
0.039101,0.058651,0.10753,0.71359
0.029326,0.058651,0.097752,0.77224
0.039101,0.058651,0.1173,0.74291
0.039101,0.058651,0.14663,0.89932
0.048876,0.058651,0.14663,0.98729
0.048876,0.058651,0.14663,0.97752
0.048876,0.058651,0.12708,0.94819
0.058651,0.048876,0.12708,0.90909
0.068426,0.048876,0.1173,0.87977
0.078201,0.048876,0.097752,0.87977
0.068426,0.058651,0.10753,0.88954
0.078201,0.048876,0.1173,0.85044
0.068426,0.048876,0.12708,0.77224
0.068426,0.048876,0.13685,0.68426
0.058651,0.048876,0.12708,0.59629
0.078201,0.058651,0.12708,0.51808
0.087977,0.048876,0.1173,0.43011
0.078201,0.048876,0.1173,0.38123
0.087977,0.058651,0.12708,0.38123
0.068426,0.048876,0.12708,0.34213
0.068426,0.048876,0.12708,0.31281
0.048876,0.048876,0.1173,0.38123
0.058651,0.048876,0.13685,0.41056
0.058651,0.039101,0.12708,0.37146
0.048876,0.048876,0.13685,0.39101
0.048876,0.048876,0.13685,0.34213
0.058651,0.048876,0.13685,0.32258
0.048876,0.039101,0.14663,0.32258
0.039101,0.039101,0.1564,0.33236
0.039101,0.039101,0.18573,0.31281
0.039101,0.039101,0.1955,0.32258
0.039101,0.039101,0.1955,0.30303
0.048876,0.039101,0.17595,0.29326
0.048876,0.039101,0.14663,0.29326
0.048876,0.039101,0.12708,0.28348
0.048876,0.048876,0.13685,0.28348
0.048876,0.048876,0.13685,0.28348
0.039101,0.048876,0.13685,0.26393
0.039101,0.048876,0.13685,0.24438
0.029326,0.058651,0.1173,0.26393
0.029326,0.048876,0.1173,0.26393
0.01955,0.048876,0.12708,0.2346
0.029326,0.048876,0.12708,0.2346
0.029326,0.048876,0.12708,0.21505
0.029326,0.048876,0.12708,0.2346
0.029326,0.048876,0.14663,0.25415
0.029326,0.048876,0.16618,0.24438
0.039101,0.048876,0.14663,0.25415
0.039101,0.058651,0.14663,0.21505
0.029326,0.068426,0.13685,0.20528
0.039101,0.058651,0.13685,0.20528
0.048876,0.058651,0.14663,0.22483
0.048876,0.068426,0.14663,0.21505
0.048876,0.068426,0.13685,0.2346
0.039101,0.087977,0.13685,0.2737
0.029326,0.097752,0.14663,0.26393
0.029326,0.10753,0.14663,0.26393
0.029326,0.097752,0.14663,0.2737
0.01955,0.097752,0.16618,0.26393
0.01955,0.097752,0.18573,0.26393
0.0097752,0.097752,0.21505,0.28348
0.01955,0.12708,0.1955,0.25415
0.029326,0.13685,0.16618,0.26393
0.029326,0.14663,0.18573,0.2346
0.039101,0.14663,0.16618,0.26393
0.058651,0.1564,0.17595,0.26393
0.10753,0.16618,0.16618,0.31281
0.1173,0.18573,0.1564,0.32258
0.1173,0.17595,0.16618,0.30303
0.1173,0.16618,0.14663,0.29326
0.12708,0.16618,0.14663,0.28348
0.1564,0.16618,0.12708,0.2737
0.2346,0.20528,0.13685,0.26393
0.22483,0.20528,0.13685,0.2737
0.2737,0.1955,0.1564,0.26393
0.28348,0.20528,0.14663,0.24438
0.22483,0.18573,0.14663,0.24438
0.1955,0.22483,0.14663,0.26393
0.1564,0.22483,0.13685,0.2346
0.13685,0.22483,0.12708,0.21505
0.10753,0.20528,0.13685,0.22483
0.097752,0.17595,0.12708,0.21505
0.087977,0.18573,0.14663,0.1955
0.087977,0.22483,0.1564,0.17595
0.078201,0.2346,0.13685,0.18573
0.068426,0.2346,0.13685,0.18573
0.048876,0.22483,0.13685,0.22483
0.048876,0.2346,0.12708,0.22483
0.058651,0.25415,0.14663,0.21505
0.048876,0.25415,0.16618,0.21505
0.058651,0.2737,0.1564,0.1955
0.048876,0.29326,0.1564,0.20528
0.039101,0.33236,0.14663,0.1955
0.029326,0.33236,0.13685,0.18573
0.029326,0.33236,0.12708,0.1955
0.029326,0.33236,0.12708,0.1955
0.039101,0.32258,0.13685,0.1955
0.029326,0.29326,0.13685,0.21505
0.029326,0.29326,0.13685,0.1955
0.01955,0.33236,0.12708,0.17595
0.01955,0.30303,0.12708,0.18573
0.01955,0.33236,0.13685,0.17595
0.029326,0.35191,0.12708,0.14663
0.039101,0.34213,0.1173,0.13685
0.039101,0.34213,0.1173,0.12708
0.039101,0.32258,0.14663,0.13685
0.039101,0.32258,0.16618,0.1564
0.048876,0.30303,0.18573,0.14663
0.048876,0.31281,0.20528,0.12708
0.039101,0.29326,0.21505,0.1173
0.039101,0.26393,0.21505,0.10753
0.048876,0.24438,0.20528,0.097752
0.048876,0.21505,0.18573,0.087977
0.048876,0.21505,0.1564,0.087977
0.039101,0.21505,0.1564,0.087977
0.039101,0.21505,0.14663,0.087977
0.048876,0.25415,0.1564,0.087977
0.048876,0.43988,0.1564,0.078201
0.039101,0.55718,0.14663,0.078201
0.048876,0.63539,0.17595,0.068426
0.048876,0.74291,0.1564,0.068426
0.058651,0.83089,0.14663,0.058651
0.068426,0.82111,0.13685,0.058651
0.068426,0.69404,0.13685,0.039101
0.058651,0.59629,0.12708,0.039101
0.058651,0.54741,0.12708,0.048876
0.068426,0.48876,0.1173,0.058651
0.087977,0.42033,0.13685,0.058651
0.087977,0.35191,0.13685,0.048876
0.068426,0.29326,0.13685,0.048876
0.058651,0.26393,0.12708,0.048876
0.058651,0.2346,0.12708,0.048876
0.058651,0.22483,0.1173,0.048876
0.068426,0.21505,0.1173,0.039101
0.068426,0.18573,0.10753,0.039101
0.068426,0.16618,0.12708,0.039101
0.058651,0.1564,0.1173,0.039101
0.048876,0.1564,0.10753,0.058651
0.048876,0.14663,0.12708,0.087977
0.048876,0.13685,0.1173,0.087977
0.058651,0.1173,0.1173,0.087977
0.048876,0.097752,0.12708,0.078201
0.039101,0.097752,0.13685,0.068426
0.039101,0.087977,0.1173,0.058651
0.029326,0.078201,0.097752,0.058651
0.029326,0.078201,0.10753,0.058651
0.01955,0.078201,0.1173,0.058651
0.01955,0.087977,0.12708,0.058651
0.0097752,0.087977,0.13685,0.058651
0.01955,0.097752,0.12708,0.048876
0.01955,0.097752,0.1173,0.048876
0.0097752,0.097752,0.1173,0.039101
0.01955,0.097752,0.10753,0.039101
0.0097752,0.097752,0.087977,0.039101
0.0097752,0.10753,0.087977,0.039101
0.0097752,0.087977,0.097752,0.029326
0,0.087977,0.10753,0.039101
0,0.087977,0.1173,0.029326
0,0.097752,0.1173,0.029326
0,0.097752,0.1173,0.029326
0.0097752,0.097752,0.1173,0.039101
0.0097752,0.097752,0.12708,0.039101
0.01955,0.087977,0.1173,0.058651
0.01955,0.097752,0.1173,0.058651
0.01955,0.097752,0.10753,0.048876
0.01955,0.097752,0.10753,0.039101
0.0097752,0.097752,0.10753,0.048876
0.0097752,0.087977,0.1173,0.039101
0.0097752,0.097752,0.097752,0.029326
0.0097752,0.10753,0.1173,0.039101
0.0097752,0.097752,0.10753,0.029326
0.0097752,0.10753,0.097752,0.029326
0.0097752,0.1173,0.10753,0.01955
0,0.1173,0.10753,0.01955
0,0.10753,0.097752,0.01955
0.0097752,0.087977,0.097752,0.01955
0,0.097752,0.087977,0.029326
0,0.087977,0.087977,0.029326
0,0.087977,0.097752,0.029326
0,0.097752,0.10753,0
0,0.087977,0.10753,0
0,0.097752,0.10753,0
0,0.087977,0.1173,0
0,0.078201,0.1173,0.068426
0,0.068426,0.13685,0
0,0.068426,0.13685,0.56696
0,0.068426,0.12708,1.5934
0,0.068426,0.14663,0
0,0.068426,0.17595,0
0,0.068426,0.18573,0
0,0.078201,0.1955,0
0,0.087977,0.25415,0
0,0.097752,0.2346,0
0.0097752,0.087977,0.2346,0.0097752
0.01955,0.097752,0.25415,2.0821
0.029326,0.097752,0.26393,0.029326
0.048876,0.087977,0.2346,0.029326
0.048876,0.078201,0.25415,0.029326
0.048876,0.087977,0.29326,0.029326
0.048876,0.097752,0.25415,0.039101
0.048876,0.087977,0.28348,0.039101
0.068426,0.087977,0.2737,0.029326
0.058651,0.097752,0.2737,0.029326
0.078201,0.12708,0.26393,0.029326
0.097752,0.12708,0.25415,0.029326
0.1173,0.12708,0.26393,0.01955
0.12708,0.1173,0.31281,0.01955
0.1173,0.10753,0.35191,0.0097752
0.10753,0.1173,0.36168,0.01955
0.1173,0.10753,0.37146,0.01955
0.1173,0.10753,0.41056,0.01955
0.13685,0.10753,0.41056,0.01955
0.14663,0.10753,0.46921,0.029326
0.18573,0.097752,0.43011,0.039101
0.1955,0.087977,0.53763,0.058651
0.1955,0.087977,0.46921,0.058651
0.2346,0.087977,0.41056,0.058651
0.25415,0.097752,0.43988,0.068426
0.24438,0.087977,0.42033,0.068426
0.2346,0.078201,0.39101,0.058651
0.22483,0.078201,0.48876,0.058651
0.22483,0.078201,0.43988,0.058651
0.20528,0.068426,0.43988,0.048876
0.1955,0.058651,0.43988,0.039101
0.24438,0.058651,0.42033,0.039101
0.28348,0.078201,0.38123,0.029326
0.25415,0.068426,0.35191,0.039101
0.2346,0.068426,0.35191,0.039101
0.28348,0.068426,0.32258,0.029326
0.2737,0.058651,0.33236,0.01955
0.2346,0.058651,0.37146,0.01955
0.26393,0.048876,0.37146,0.01955
0.26393,0.058651,0.37146,0.0097752
0.30303,0.068426,0.34213,0.0097752
0.26393,0.068426,0.36168,0.0097752
0.22483,0.068426,0.42033,0.0097752
0.20528,0.058651,0.40078,0
0.28348,0.058651,0.36168,0
0.31281,0.068426,0.38123,0
0.31281,0.058651,0.42033,0
0.34213,0.078201,0.37146,0
0.37146,0.068426,0.34213,0.0097752
0.41056,0.068426,0.31281,0.0097752
0.40078,0.068426,0.30303,0.0097752
0.39101,0.058651,0.25415,0.0097752
0.39101,0.058651,0.22483,0.0097752
0.39101,0.058651,0.20528,0
0.43011,0.068426,0.17595,0.0097752
0.45943,0.068426,0.17595,0.0097752
0.53763,0.058651,0.1955,0.0097752
0.52786,0.068426,0.17595,0.01955
0.44966,0.068426,0.16618,0.029326
0.42033,0.058651,0.13685,0.029326
0.41056,0.058651,0.14663,0.01955
0.38123,0.058651,0.13685,0.01955
0.36168,0.058651,0.1173,0.01955
0.32258,0.068426,0.1173,0.01955
0.31281,0.068426,0.1173,0.01955
0.2737,0.058651,0.1173,0.01955
0.2346,0.068426,0.1173,0.01955
0.20528,0.058651,0.12708,0.01955
0.17595,0.068426,0.12708,0.0097752
0.14663,0.068426,0.1173,0.0097752
0.13685,0.058651,0.097752,0.0097752
0.1173,0.068426,0.10753,0.0097752
0.10753,0.058651,0.1173,0
0.097752,0.058651,0.12708,0
0.097752,0.058651,0.1173,0
0.097752,0.058651,0.1173,0
0.087977,0.058651,0.12708,0.0097752
0.087977,0.058651,0.13685,0.0097752
0.078201,0.058651,0.1173,0.0097752
0.087977,0.058651,0.12708,0.0097752
0.087977,0.058651,0.12708,0.0097752
0.078201,0.058651,0.13685,0.0097752
0.078201,0.058651,0.12708,0.0097752
0.078201,0.068426,0.12708,0
0.078201,0.068426,0.12708,0
0.068426,0.058651,0.12708,0
0.068426,0.058651,0.13685,0
0.078201,0.058651,0.13685,0
0.068426,0.058651,0.12708,0
0.068426,0.068426,0.1173,0
0.10753,0.068426,0.1173,0
0.097752,0.058651,0.12708,0
0.087977,0.058651,0.13685,0
0.078201,0.058651,0.14663,0
0.078201,0.058651,0.14663,0
0.087977,0.058651,0.1564,0
0.10753,0.058651,0.14663,0
0.087977,0.048876,0.12708,0
0.078201,0.058651,0.12708,0
0.087977,0.058651,0.12708,0
0.087977,0.058651,0.1173,0
0.087977,0.048876,0.12708,0
0.10753,0.068426,0.1173,0
0.10753,0.068426,0.1173,0
0.097752,0.068426,0.1173,0
0.097752,0.068426,0.1173,0
0.097752,0.058651,0.1173,0
0.097752,0.058651,0.10753,0
0.097752,0.048876,0.10753,0
0.10753,0.048876,0.1173,0
0.10753,0.048876,0.1173,0
0.10753,0.048876,0.10753,0
0.087977,0.058651,0.1173,0
0.087977,0.058651,0.12708,0
0.097752,0.048876,0.10753,0
0.087977,0.058651,0.1173,0
0.068426,0.058651,0.1173,0
0.087977,0.058651,0.12708,0
0.10753,0.058651,0.1173,0
0.097752,0.048876,0.13685,0
0.087977,0.058651,0.12708,0
0.097752,0.068426,0.13685,0.0097752
0.10753,0.068426,0.13685,0.0097752
0.087977,0.078201,0.1564,0.0097752
0.078201,0.078201,0.1955,0.0097752
0.097752,0.078201,0.25415,0.01955
0.097752,0.068426,0.25415,0.01955
0.097752,0.068426,0.2346,0.01955
0.087977,0.068426,0.20528,0.029326
0.078201,0.068426,0.22483,0.039101
0.087977,0.058651,0.1955,0.039101
0.097752,0.058651,0.18573,0.048876
0.087977,0.058651,0.17595,0.048876
0.087977,0.058651,0.17595,0.048876
0.097752,0.068426,0.1564,0.048876
0.097752,0.068426,0.14663,0.058651
0.078201,0.068426,0.13685,0.058651
0.068426,0.068426,0.12708,0.058651
0.068426,0.058651,0.1173,0.068426
0.068426,0.058651,0.10753,0.097752
0.058651,0.048876,0.1173,0.087977
0.048876,0.048876,0.14663,0.087977
0.039101,0.048876,0.12708,0.1173
0.039101,0.058651,0.10753,0.12708
0.058651,0.058651,0.1173,0.13685
0.048876,0.058651,0.1173,0.12708
0.039101,0.068426,0.1173,0.12708
0.039101,0.078201,0.097752,0.1173
0.039101,0.078201,0.1173,0.12708
0.048876,0.078201,0.10753,0.13685
0.058651,0.078201,0.10753,0.17595
0.039101,0.087977,0.10753,0.18573
0.039101,0.087977,0.1173,0.16618
0.039101,0.078201,0.10753,0.1955
0.039101,0.078201,0.10753,0.18573
0.029326,0.078201,0.097752,0.20528
0.01955,0.078201,0.10753,0.1955
0.01955,0.068426,0.10753,0.2346
0.01955,0.068426,0.097752,0.2737
0.0097752,0.068426,0.1173,0.28348
0.0097752,0.068426,0.12708,0.29326
0.0097752,0.068426,0.12708,0.30303
0.01955,0.068426,0.12708,0.30303
0.0097752,0.068426,0.1173,0.31281
0.0097752,0.068426,0.1173,0.34213
0.0097752,0.058651,0.12708,0.34213
0.0097752,0.068426,0.1173,0.35191
0.0097752,0.078201,0.1173,0.41056
0.0097752,0.078201,0.10753,0.56696
0.0097752,0.078201,0.10753,0.55718
0,0.068426,0.097752,0.51808
0,0.078201,0.097752,0.49853
0.0097752,0.087977,0.097752,0.55718
0.0097752,0.087977,0.087977,0.52786
0,0.087977,0.078201,0.61584
0,0.087977,0.097752,0.71359
0,0.087977,0.087977,0.83089
0.0097752,0.078201,0.087977,0.91887
0,0.087977,0.087977,0.87977
0,0.087977,0.078201,0.77224
0.0097752,0.097752,0.097752,0.76246
0.0097752,0.087977,0.1173,0.73314
0.0097752,0.097752,0.1173,0.75269
0.0097752,0.1173,0.097752,0.75269
0.01955,0.10753,0.097752,0.69404
0.0097752,0.097752,0.097752,0.61584
0.0097752,0.087977,0.097752,0.55718
0.0097752,0.087977,0.087977,0.51808
0.0097752,0.087977,0.087977,0.46921
0.0097752,0.087977,0.097752,0.40078
0.0097752,0.087977,0.097752,0.39101
0.0097752,0.087977,0.087977,0.35191
0.0097752,0.087977,0.087977,0.34213
0,0.087977,0.087977,0.33236
0.0097752,0.087977,0.097752,0.34213
0.0097752,0.097752,0.087977,0.31281
0.0097752,0.097752,0.10753,0.2737
0.0097752,0.10753,0.097752,0.25415
0.0097752,0.1173,0.097752,0.21505
0.0097752,0.12708,0.087977,0.21505
0.0097752,0.1173,0.087977,0.20528
0.01955,0.10753,0.10753,0.18573
0.048876,0.1173,0.097752,0.17595
0.068426,0.1173,0.097752,0.16618
0.078201,0.097752,0.087977,0.16618
0.068426,0.097752,0.10753,0.14663
0.068426,0.10753,0.097752,0.14663
0.078201,0.10753,0.087977,0.13685
0.058651,0.10753,0.087977,0.13685
0.048876,0.097752,0.078201,0.12708
0.039101,0.10753,0.078201,0.12708
0.048876,0.1173,0.078201,0.12708
0.048876,0.12708,0.087977,0.12708
0.048876,0.1173,0.068426,0.1173
0.029326,0.1173,0.078201,0.10753
0.029326,0.1173,0.078201,0.12708
0.029326,0.12708,0.068426,0.1173
0.01955,0.13685,0.068426,0.12708
0.01955,0.14663,0.068426,0.13685
0.0097752,0.14663,0.068426,0.12708
0.0097752,0.1564,0.068426,0.1173
0.01955,0.1564,0.068426,0.12708
0.0097752,0.18573,0.068426,0.12708
0.0097752,0.18573,0.068426,0.14663
0.0097752,0.1955,0.068426,0.14663
0.0097752,0.18573,0.058651,0.13685
0.01955,0.17595,0.058651,0.1564
0.0097752,0.16618,0.068426,0.14663
0.0097752,0.1955,0.068426,0.13685
0.01955,0.1955,0.078201,0.12708
0.01955,0.17595,0.078201,0.13685
0.01955,0.1955,0.078201,0.12708
0.01955,0.17595,0.068426,0.1173
0.01955,0.17595,0.068426,0.12708
0.01955,0.18573,0.078201,0.12708
0.01955,0.17595,0.068426,0.12708
0.01955,0.17595,0.087977,0.1173
0.01955,0.18573,0.078201,0.1173
0.0097752,0.1564,0.068426,0.13685
0.01955,0.1564,0.087977,0.16618
0.0097752,0.1564,0.087977,0.14663
0.0097752,0.14663,0.078201,0.13685
0.0097752,0.14663,0.068426,0.12708
0.0097752,0.1564,0.078201,0.10753
0.0097752,0.17595,0.078201,0.1173
0.0097752,0.1955,0.068426,0.1173
0.0097752,0.21505,0.068426,0.1173
0.029326,0.20528,0.068426,0.1173
0.048876,0.18573,0.078201,0.1173
0.048876,0.18573,0.087977,0.10753
0.048876,0.21505,0.078201,0.097752
0.039101,0.1955,0.068426,0.087977
0.039101,0.17595,0.068426,0.087977
0.029326,0.18573,0.078201,0.078201
0.029326,0.18573,0.078201,0.087977
0.029326,0.1955,0.078201,0.087977
0.029326,0.20528,0.078201,0.087977
0.029326,0.20528,0.078201,0.10753
0.029326,0.22483,0.078201,0.097752
0.01955,0.2346,0.078201,0.087977
0.01955,0.2737,0.078201,0.087977
0.01955,0.28348,0.068426,0.10753
0.0097752,0.31281,0.068426,0.12708
0.0097752,0.31281,0.078201,0.097752
0.0097752,0.28348,0.068426,0.087977
0.01955,0.28348,0.058651,0.087977
0.0097752,0.24438,0.058651,0.087977
0.01955,0.2346,0.058651,0.078201
0.01955,0.2346,0.068426,0.068426
0.01955,0.35191,0.068426,0.058651
0.01955,0.51808,0.068426,0.068426
0.01955,0.44966,0.068426,0.078201
0.01955,0.43988,0.058651,0.078201
0.0097752,0.43988,0.058651,0.078201
0.0097752,0.48876,0.068426,0.068426
0.0097752,0.48876,0.058651,0.087977
0.0097752,0.43011,0.068426,0.078201
0.0097752,0.41056,0.068426,0.078201
0.01955,0.42033,0.068426,0.068426
0.01955,0.35191,0.068426,0.058651
0.01955,0.35191,0.068426,0.048876
0.01955,0.36168,0.068426,0.048876
0.0097752,0.33236,0.068426,0.039101
0.0097752,0.28348,0.058651,0.039101
0.0097752,0.24438,0.068426,0.029326
0.0097752,0.1955,0.087977,0.029326
0.0097752,0.17595,0.078201,0.029326
0.0097752,0.14663,0.078201,0.029326
0.0097752,0.13685,0.078201,0.029326
0.01955,0.12708,0.078201,0.048876
0.01955,0.10753,0.087977,0.048876
0.01955,0.10753,0.087977,0.039101
0.029326,0.10753,0.087977,0.039101
0.029326,0.097752,0.087977,0.039101
0.029326,0.087977,0.097752,0.039101
0.01955,0.078201,0.10753,0.039101
0.0097752,0.078201,0.10753,0.039101
0.0097752,0.078201,0.10753,0.029326
0.0097752,0.087977,0.1173,0.029326
0.0097752,0.087977,0.1173,0.01955
0.0097752,0.097752,0.12708,0.01955
0.0097752,0.078201,0.13685,0.0097752
0.0097752,0.087977,0.17595,0.0097752
0.01955,0.078201,0.16618,0.0097752
0.01955,0.087977,0.17595,0.0097752
0.0097752,0.087977,0.18573,0
0.01955,0.087977,0.20528,0.0097752
0.01955,0.087977,0.20528,0
0.0097752,0.087977,0.21505,0
0.01955,0.078201,0.21505,0
0.0097752,0.078201,0.24438,0.0097752
0.0097752,0.078201,0.2737,0.0097752
0.0097752,0.087977,0.26393,0
0.0097752,0.078201,0.26393,0
0.0097752,0.078201,0.24438,0
0,0.087977,0.2346,0
0,0.087977,0.22483,0
0.0097752,0.087977,0.22483,0
0.0097752,0.087977,0.24438,0
0.0097752,0.097752,0.22483,0
0.0097752,0.10753,0.22483,0
0.0097752,0.1173,0.2346,0
0.0097752,0.1173,0.25415,0
0.0097752,0.10753,0.2737,0
0.0097752,0.097752,0.25415,0
0,0.087977,0.2346,0
0,0.087977,0.24438,0
0,0.087977,0.26393,0
0,0.087977,0.30303,0
0,0.087977,0.30303,0
0,0.097752,0.32258,0
0.0097752,0.097752,0.36168,0
0.029326,0.10753,0.40078,0
0.029326,0.10753,0.37146,0
0.048876,0.10753,0.35191,0
0.048876,0.10753,0.34213,0
0.039101,0.10753,0.37146,0
0.039101,0.10753,0.37146,0
0.039101,0.10753,0.33236,0
0.029326,0.097752,0.30303,0
0.029326,0.097752,0.30303,0
0.048876,0.087977,0.30303,0
0.048876,0.087977,0.32258,0
0.058651,0.087977,0.36168,0
0.068426,0.087977,0.35191,0
0.068426,0.078201,0.30303,0
0.068426,0.078201,0.28348,0
0.068426,0.087977,0.28348,0
0.087977,0.097752,0.30303,0
0.078201,0.097752,0.2737,0
0.078201,0.097752,0.26393,0
0.087977,0.10753,0.29326,0
0.097752,0.10753,0.26393,0
0.10753,0.10753,0.24438,0
0.10753,0.10753,0.20528,0
0.12708,0.097752,0.1955,0
0.16618,0.097752,0.16618,0
0.1564,0.078201,0.14663,0
0.16618,0.068426,0.14663,0
0.14663,0.078201,0.13685,0
0.1564,0.068426,0.13685,0
0.13685,0.068426,0.1173,0
0.12708,0.078201,0.10753,0
0.1173,0.097752,0.1173,0
0.10753,0.1173,0.10753,0
0.097752,0.14663,0.097752,0
0.14663,0.1564,0.1173,0
0.1564,0.16618,0.10753,0
0.1564,0.16618,0.097752,0
0.14663,0.14663,0.10753,0
0.16618,0.12708,0.10753,0
0.1955,0.1173,0.10753,0
0.1955,0.10753,0.10753,0
0.18573,0.097752,0.10753,0
0.21505,0.097752,0.097752,0
0.21505,0.087977,0.097752,0
0.21505,0.087977,0.12708,0
0.22483,0.087977,0.1173,0
0.21505,0.087977,0.1173,0
0.22483,0.078201,0.13685,0
0.20528,0.078201,0.13685,0
0.2346,0.078201,0.14663,0
0.24438,0.078201,0.16618,0
0.24438,0.078201,0.17595,0
0.25415,0.078201,0.16618,0
0.22483,0.078201,0.1564,0
0.21505,0.078201,0.1564,0
0.20528,0.068426,0.16618,0
0.20528,0.078201,0.16618,0
0.20528,0.068426,0.18573,0
0.21505,0.068426,0.1955,0
0.29326,0.068426,0.20528,0
0.40078,0.058651,0.1955,0
0.45943,0.068426,0.1955,0
0.55718,0.078201,0.16618,0
0.55718,0.068426,0.18573,0
0.55718,0.068426,0.21505,0
0.57674,0.058651,0.20528,0
0.57674,0.058651,0.21505,0
0.52786,0.068426,0.21505,0
0.50831,0.048876,0.20528,0
0.55718,0.058651,0.18573,0
0.61584,0.068426,0.18573,0
0.58651,0.068426,0.18573,0
0.52786,0.068426,0.18573,0
0.47898,0.068426,0.16618,0
0.41056,0.068426,0.1955,0
0.34213,0.058651,0.18573,0
0.29326,0.068426,0.18573,0
0.25415,0.068426,0.1955,0
0.21505,0.058651,0.18573,0
0.1955,0.058651,0.18573,0
0.16618,0.068426,0.17595,0
0.14663,0.068426,0.1564,0
0.12708,0.058651,0.16618,0
0.10753,0.058651,0.058651,0.22483
0.79179,0.80156,0.45943,0.68426
0.61584,0.66471,0.44966,0.52786
0.48876,0.53763,0.37146,0.42033
0.38123,0.43988,0.33236,0.33236
0.29326,0.36168,0.29326,0.26393
0.2346,0.30303,0.30303,0.20528
0.18573,0.26393,0.2737,0.16618
0.14663,0.21505,0.24438,0.13685
0.1173,0.1955,0.20528,0.10753
0.087977,0.17595,0.20528,0.087977
0.068426,0.1564,0.18573,0.058651
0.048876,0.13685,0.16618,0.048876
0.039101,0.1173,0.14663,0.039101
0.039101,0.10753,0.14663,0.029326
0.029326,0.10753,0.12708,0.029326
0.01955,0.097752,0.12708,0.01955
0.01955,0.087977,0.097752,0.01955
0.0097752,0.087977,0.10753,0.01955
0.0097752,0.087977,0.097752,0.0097752
0.0097752,0.087977,0.087977,0.0097752
0.0097752,0.087977,0.097752,0.0097752
0.0097752,0.078201,0.087977,0.0097752
0.0097752,0.078201,0.10753,0
0.0097752,0.087977,0.12708,0.0097752
0.0097752,0.078201,0.10753,0
0,0.078201,0.097752,0.0097752
0,0.078201,0.087977,0
0,0.078201,0.087977,0.0097752
0,0.068426,0.097752,0.01955
0,0.058651,0.10753,0.058651
0,0.068426,0.10753,0.078201
0,0.068426,0.10753,0.078201
0,0.058651,0.12708,0.068426
0,0.068426,0.12708,0.078201
0,0.058651,0.14663,0.097752
0,0.058651,0.1564,0.10753
0,0.058651,0.1564,0.10753
0,0.048876,0.1564,0.10753
0,0.048876,0.17595,0.1173
0,0.058651,0.18573,0.087977
0,0.058651,0.21505,0.10753
0,0.058651,0.2737,0.14663
0,0.048876,0.25415,0.1564
0,0.048876,0.25415,0.20528
0,0.048876,0.24438,0.22483
0,0.058651,0.22483,0.24438
0,0.048876,0.25415,0.24438
0,0.048876,0.2346,0.22483
0,0.058651,0.21505,0.20528
0,0.058651,0.20528,0.2346
0,0.048876,0.20528,0.28348
0,0.058651,0.18573,0.36168
0,0.048876,0.16618,0.39101
0,0.048876,0.1564,0.38123
0,0.048876,0.1564,0.35191
0,0.058651,0.14663,0.33236
0,0.068426,0.14663,0.32258
0.0097752,0.068426,0.1564,0.35191
0.0097752,0.068426,0.14663,0.37146
0.01955,0.068426,0.1564,0.41056
0.01955,0.048876,0.1564,0.40078
0.039101,0.058651,0.1564,0.40078
0.029326,0.048876,0.14663,0.45943
0.029326,0.058651,0.14663,0.42033
0.01955,0.058651,0.14663,0.42033
0.0097752,0.058651,0.13685,0.53763
0.0097752,0.058651,0.13685,0.54741
0.0097752,0.058651,0.13685,0.65494
0.0097752,0.048876,0.1955,0.62561
0.01955,0.058651,0.17595,0.58651
0.01955,0.058651,0.20528,0.58651
0.029326,0.058651,0.20528,0.53763
0.029326,0.048876,0.1955,0.48876
0.039101,0.048876,0.17595,0.52786
0.048876,0.048876,0.16618,0.48876
0.058651,0.048876,0.17595,0.45943
0.068426,0.048876,0.1564,0.46921
0.078201,0.058651,0.14663,0.45943
0.087977,0.048876,0.12708,0.53763
0.097752,0.058651,0.13685,0.55718
0.097752,0.058651,0.12708,0.47898
0.097752,0.048876,0.14663,0.43011
0.10753,0.048876,0.14663,0.37146
0.1173,0.048876,0.12708,0.37146
0.12708,0.048876,0.12708,0.32258
0.1173,0.058651,0.14663,0.30303
0.12708,0.048876,0.13685,0.26393
0.12708,0.048876,0.12708,0.22483
0.12708,0.048876,0.12708,0.18573
0.13685,0.048876,0.1173,0.17595
0.13685,0.058651,0.13685,0.17595
0.1564,0.048876,0.1173,0.1564
0.20528,0.048876,0.10753,0.13685
0.1955,0.048876,0.097752,0.13685
0.1955,0.048876,0.13685,0.14663
0.1955,0.048876,0.12708,0.14663
0.21505,0.058651,0.14663,0.14663
0.26393,0.048876,0.14663,0.14663
0.2346,0.058651,0.12708,0.16618
0.21505,0.048876,0.13685,0.16618
0.2346,0.048876,0.1173,0.1564
0.20528,0.048876,0.10753,0.17595
0.2346,0.048876,0.10753,0.16618
0.25415,0.048876,0.1173,0.16618
0.2737,0.048876,0.10753,0.1564
0.34213,0.048876,0.1173,0.14663
0.32258,0.048876,0.097752,0.13685
0.32258,0.048876,0.10753,0.14663
0.29326,0.048876,0.097752,0.14663
0.28348,0.048876,0.10753,0.13685
0.31281,0.048876,0.087977,0.12708
0.26393,0.048876,0.078201,0.13685
0.30303,0.048876,0.078201,0.12708
0.33236,0.048876,0.078201,0.12708
0.30303,0.048876,0.087977,0.14663
0.33236,0.039101,0.087977,0.14663
0.38123,0.039101,0.087977,0.14663
0.43011,0.029326,0.097752,0.12708
0.50831,0.039101,0.087977,0.1173
0.44966,0.039101,0.087977,0.13685
0.43988,0.029326,0.087977,0.12708
0.44966,0.039101,0.078201,0.12708
0.47898,0.039101,0.068426,0.12708
0.48876,0.039101,0.068426,0.1173
0.45943,0.039101,0.078201,0.1173
0.44966,0.039101,0.078201,0.10753
0.39101,0.048876,0.068426,0.097752
0.34213,0.058651,0.058651,0.078201
0.33236,0.048876,0.058651,0.068426
0.28348,0.048876,0.068426,0.078201
0.26393,0.058651,0.068426,0.097752
0.2346,0.058651,0.068426,0.078201
0.18573,0.058651,0.068426,0.078201
0.16618,0.058651,0.068426,0.087977
0.14663,0.048876,0.068426,0.097752
0.13685,0.048876,0.068426,0.087977
0.10753,0.048876,0.058651,0.087977
0.13685,0.048876,0.068426,0.10753
0.12708,0.048876,0.068426,0.10753
0.1173,0.048876,0.068426,0.097752
0.10753,0.048876,0.068426,0.097752
0.10753,0.058651,0.058651,0.097752
0.1173,0.058651,0.058651,0.087977
0.097752,0.058651,0.068426,0.078201
0.087977,0.058651,0.058651,0.068426
0.10753,0.058651,0.068426,0.068426
0.12708,0.068426,0.068426,0.068426
0.1173,0.068426,0.058651,0.058651
0.12708,0.068426,0.068426,0.058651
0.10753,0.078201,0.058651,0.048876
0.097752,0.068426,0.068426,0.058651
0.097752,0.087977,0.068426,0.058651
0.10753,0.087977,0.058651,0.058651
0.10753,0.10753,0.058651,0.058651
0.10753,0.10753,0.058651,0.058651
0.1173,0.1173,0.068426,0.058651
0.10753,0.13685,0.058651,0.068426
0.10753,0.14663,0.068426,0.058651
0.097752,0.13685,0.078201,0.058651
0.10753,0.14663,0.068426,0.058651
0.097752,0.14663,0.068426,0.068426
0.12708,0.12708,0.068426,0.068426
0.1173,0.14663,0.078201,0.058651
0.10753,0.13685,0.078201,0.068426
0.12708,0.14663,0.068426,0.058651
0.12708,0.14663,0.078201,0.058651
0.12708,0.13685,0.087977,0.058651
0.1173,0.13685,0.078201,0.048876
0.1173,0.12708,0.078201,0.058651
0.1173,0.13685,0.078201,0.058651
0.1173,0.14663,0.078201,0.048876
0.12708,0.13685,0.068426,0.048876
0.12708,0.13685,0.068426,0.039101
0.1173,0.1564,0.068426,0.039101
0.097752,0.1564,0.068426,0.039101
0.10753,0.1564,0.068426,0.039101
0.097752,0.16618,0.078201,0.029326
0.097752,0.1564,0.068426,0.029326
0.097752,0.1955,0.068426,0.01955
0.10753,0.17595,0.068426,0.01955
0.097752,0.18573,0.058651,0.01955
0.078201,0.17595,0.058651,0.0097752
0.078201,0.21505,0.058651,0.01955
0.087977,0.20528,0.058651,0.029326
0.087977,0.20528,0.058651,0.01955
0.078201,0.20528,0.048876,0.01955
0.068426,0.2346,0.068426,0.01955
0.068426,0.25415,0.068426,0.0097752
0.068426,0.24438,0.058651,0.0097752
0.058651,0.22483,0.058651,0.01955
0.048876,0.22483,0.068426,0.01955
0.058651,0.28348,0.068426,0.01955
0.058651,0.2737,0.068426,0.0097752
0.068426,0.2737,0.068426,0.0097752
0.058651,0.32258,0.058651,0.0097752
0.087977,0.30303,0.068426,0.0097752
0.097752,0.28348,0.068426,0.0097752
0.078201,0.29326,0.068426,0.0097752
0.078201,0.2737,0.087977,0.0097752
0.078201,0.2737,0.097752,0.01955
0.068426,0.26393,0.097752,0.0097752
0.068426,0.26393,0.097752,0.0097752
0.058651,0.25415,0.097752,0.0097752
0.058651,0.24438,0.087977,0.0097752
0.058651,0.25415,0.10753,0.0097752
0.068426,0.2737,0.10753,0
0.058651,0.2737,0.097752,0
0.048876,0.24438,0.097752,0
0.048876,0.24438,0.10753,0
0.048876,0.2737,0.10753,0
0.048876,0.25415,0.097752,0
0.039101,0.24438,0.087977,0
0.039101,0.21505,0.087977,0
0.029326,0.18573,0.087977,0
0.01955,0.1564,0.078201,0
0.01955,0.12708,0.087977,0
0.01955,0.1173,0.078201,0
0.01955,0.097752,0.087977,0
0.01955,0.087977,0.078201,0
0.0097752,0.087977,0.078201,0
0.0097752,0.078201,0.068426,0
0.0097752,0.068426,0.068426,0
0.0097752,0.068426,0.078201,0
0.0097752,0.068426,0.068426,0
0,0.068426,0.068426,0
0,0.058651,0.068426,0
0.0097752,0.068426,0.068426,0
0.0097752,0.068426,0.068426,0
0,0.068426,0.068426,0
0.0097752,0.078201,0.068426,0
0.0097752,0.078201,0.068426,0
0.0097752,0.078201,0.078201,0
0.0097752,0.087977,0.087977,0
0.0097752,0.087977,0.097752,0
0.0097752,0.087977,0.097752,0
0.0097752,0.078201,0.087977,0
0.0097752,0.087977,0.097752,0
0,0.078201,0.087977,0
0,0.087977,0.087977,0
0,0.097752,0.087977,0
0,0.10753,0.078201,0
0,0.097752,0.087977,0
0,0.097752,0.087977,0
0,0.10753,0.078201,0
0,0.097752,0.097752,0
0,0.097752,0.087977,0
0,0.097752,0.087977,0
0,0.10753,0.087977,0
0,0.10753,0.087977,0
0,0.10753,0.087977,0
0,0.1173,0.097752,0
0,0.10753,0.087977,0
0,0.097752,0.097752,0
0,0.10753,0.097752,0
0,0.097752,0.097752,0
0,0.087977,0.097752,0
0,0.087977,0.097752,0
0,0.087977,0.097752,0
0,0.087977,0.097752,0
0,0.087977,0.10753,0
0,0.087977,0.10753,0
0,0.087977,0.1173,0
0,0.087977,0.14663,0
0,0.097752,0.17595,0
0,0.087977,0.16618,0
0,0.087977,0.17595,0
0,0.087977,0.17595,0
0,0.087977,0.16618,0
0,0.087977,0.1564,0
0,0.097752,0.1564,0
0,0.097752,0.14663,0
0,0.087977,0.1564,0
0,0.087977,0.14663,0
0,0.078201,0.16618,0
0,0.087977,0.1564,0
0,0.087977,0.16618,0
0,0.087977,0.1955,0
0,0.087977,0.17595,0
0.0097752,0.087977,0.17595,0
0.0097752,0.087977,0.18573,0
0,0.087977,0.18573,0
0,0.087977,0.17595,0
0.0097752,0.087977,0.1955,0
0.0097752,0.087977,0.18573,0
0,0.087977,0.17595,0
0,0.087977,0.16618,0
0,0.097752,0.1955,0
0,0.087977,0.21505,0
0,0.087977,0.20528,0
0,0.087977,0.20528,0
0,0.078201,0.1955,0
0,0.068426,0.18573,0
0,0.078201,0.16618,0
0,0.078201,0.17595,0
0,0.068426,0.17595,0
0,0.068426,0.1955,0
0,0.068426,0.21505,0
0,0.068426,0.2346,0
0,0.058651,0.22483,0
0,0.068426,0.25415,0
0,0.068426,0.25415,0
0,0.058651,0.2737,0
0,0.068426,0.24438,0
0,0.058651,0.24438,0
0,0.068426,0.24438,0
0,0.068426,0.2346,0
0,0.068426,0.2346,0
0,0.068426,0.24438,0
0,0.068426,0.22483,0
0,0.068426,0.2737,0
0,0.068426,0.33236,0
0,0.068426,0.39101,0
0,0.068426,0.42033,0
0,0.068426,0.59629,0
0,0.068426,0.62561,0
0,0.068426,0.52786,0
0,0.068426,0.54741,0
0,0.068426,0.54741,0
0,0.078201,0.55718,0
0,0.078201,0.58651,0
0,0.068426,0.50831,0
0,0.068426,0.49853,0
0,0.058651,0.49853,0
0,0.058651,0.46921,0
0,0.058651,0.43988,0.0097752
0,0.058651,0.40078,0.01955
0,0.068426,0.36168,0.029326
0,0.078201,0.33236,0.058651
0,0.068426,0.28348,0.058651
0,0.078201,0.25415,0.058651
0,0.078201,0.24438,0.058651
0,0.068426,0.21505,0.078201
0,0.068426,0.1955,0.087977
0,0.068426,0.21505,0.068426
0,0.068426,0.21505,0.068426
0,0.068426,0.17595,0.087977
0,0.068426,0.1564,0.087977
0,0.068426,0.13685,0.12708
0,0.058651,0.12708,0.14663
0,0.068426,0.1173,0.16618
0,0.068426,0.12708,0.18573
0,0.068426,0.12708,0.20528
0,0.068426,0.1173,0.1955
0,0.058651,0.1173,0.17595
0,0.058651,0.1173,0.1955
0,0.058651,0.1173,0.21505
0,0.058651,0.1173,0.28348
0,0.048876,0.13685,0.29326
0,0.058651,0.13685,0.26393
0,0.058651,0.1173,0.2737
0,0.058651,0.13685,0.32258
0,0.058651,0.12708,0.32258
0,0.058651,0.12708,0.33236
0,0.058651,0.12708,0.45943
0,0.058651,0.12708,0.45943
0,0.058651,0.12708,0.44966
0,0.058651,0.13685,0.43988
0,0.058651,0.13685,0.46921
0,0.058651,0.12708,0.44966
0,0.058651,0.12708,0.41056
0,0.048876,0.12708,0.43988
0,0.048876,0.14663,0.51808
0,0.048876,0.14663,0.51808
0,0.048876,0.13685,0.50831
0,0.048876,0.14663,0.46921
0,0.039101,0.16618,0.42033
0,0.039101,0.17595,0.39101
0,0.048876,0.20528,0.43011
0,0.048876,0.20528,0.46921
0,0.048876,0.17595,0.61584
0,0.048876,0.18573,0.56696
0,0.048876,0.18573,0.52786
0,0.048876,0.17595,0.50831
0,0.048876,0.17595,0.52786
0,0.048876,0.1564,0.53763
0,0.048876,0.14663,0.56696
0,0.058651,0.14663,0.59629
0,0.048876,0.13685,0.61584
0,0.048876,0.13685,0.66471
0,0.048876,0.12708,0.61584
0,0.048876,0.12708,0.54741
0,0.048876,0.13685,0.50831
0,0.048876,0.14663,0.45943
0,0.048876,0.16618,0.41056
0,0.048876,0.16618,0.34213
0,0.048876,0.17595,0.29326
0,0.048876,0.17595,0.24438
0,0.058651,0.17595,0.24438
0,0.048876,0.16618,0.22483
0.0097752,0.058651,0.16618,0.1955
0.0097752,0.048876,0.16618,0.1955
0.029326,0.058651,0.14663,0.16618
0.029326,0.048876,0.13685,0.1564
0.029326,0.048876,0.14663,0.14663
0.048876,0.048876,0.13685,0.12708
0.048876,0.048876,0.12708,0.1173
0.058651,0.039101,0.1173,0.12708
0.058651,0.048876,0.10753,0.12708
0.087977,0.048876,0.1173,0.12708
0.087977,0.039101,0.10753,0.12708
0.10753,0.048876,0.097752,0.14663
0.1173,0.048876,0.097752,0.16618
0.10753,0.048876,0.10753,0.14663
0.1173,0.048876,0.12708,0.1564
0.14663,0.048876,0.1173,0.16618
0.13685,0.058651,0.1173,0.1564
0.1173,0.058651,0.10753,0.1564
0.13685,0.058651,0.12708,0.16618
0.12708,0.058651,0.10753,0.18573
0.12708,0.058651,0.12708,0.1955
0.13685,0.058651,0.1173,0.17595
0.14663,0.058651,0.1173,0.16618
0.1564,0.058651,0.1173,0.1564
0.1564,0.048876,0.1173,0.16618
0.16618,0.048876,0.1173,0.18573
0.18573,0.048876,0.10753,0.16618
0.20528,0.048876,0.1173,0.1955
0.20528,0.048876,0.10753,0.18573
0.20528,0.048876,0.10753,0.1564
0.17595,0.039101,0.097752,0.14663
0.18573,0.048876,0.10753,0.13685
0.1955,0.048876,0.10753,0.12708
0.20528,0.058651,0.1173,0.10753
0.22483,0.058651,0.12708,0.1173
0.2346,0.068426,0.1173,0.10753
0.28348,0.068426,0.1173,0.087977
0.28348,0.068426,0.1173,0.078201
0.29326,0.078201,0.12708,0.078201
0.25415,0.068426,0.1173,0.078201
0.25415,0.068426,0.13685,0.078201
0.26393,0.058651,0.1564,0.058651
0.29326,0.068426,0.17595,0.078201
0.28348,0.058651,0.17595,0.078201
0.28348,0.058651,0.16618,0.068426
0.32258,0.058651,0.1564,0.058651
0.32258,0.058651,0.14663,0.048876
0.32258,0.058651,0.13685,0.058651
0.28348,0.068426,0.1564,0.058651
0.29326,0.058651,0.13685,0.078201
0.29326,0.058651,0.12708,0.078201
0.32258,0.058651,0.13685,0.078201
0.29326,0.048876,0.13685,0.068426
0.2737,0.048876,0.12708,0.058651
0.26393,0.048876,0.1173,0.087977
0.26393,0.048876,0.10753,0.078201
0.28348,0.048876,0.10753,0.078201
0.28348,0.048876,0.10753,0.068426
0.28348,0.058651,0.087977,0.068426
0.2737,0.048876,0.097752,0.068426
0.2737,0.058651,0.097752,0.058651
0.26393,0.068426,0.10753,0.048876
0.22483,0.068426,0.097752,0.048876
0.20528,0.068426,0.097752,0.058651
0.20528,0.068426,0.10753,0.058651
0.17595,0.068426,0.097752,0.048876
0.14663,0.068426,0.10753,0.039101
0.12708,0.087977,0.10753,0.039101
0.12708,0.097752,0.1173,0.048876
0.1173,0.087977,0.10753,0.048876
0.10753,0.097752,0.097752,0.039101
0.097752,0.10753,0.078201,0.039101
0.087977,0.10753,0.097752,0.029326
0.097752,0.1173,0.087977,0.029326
0.087977,0.12708,0.087977,0.029326
0.078201,0.1173,0.087977,0.01955
0.078201,0.13685,0.087977,0.029326
0.068426,0.13685,0.097752,0.029326
0.068426,0.1564,0.087977,0.029326
0.068426,0.1564,0.087977,0.029326
0.068426,0.14663,0.087977,0.029326
0.068426,0.13685,0.087977,0.01955
0.068426,0.13685,0.097752,0.01955
0.078201,0.14663,0.10753,0.01955
0.078201,0.14663,0.097752,0.01955
0.087977,0.14663,0.087977,0.01955
0.087977,0.16618,0.087977,0.01955
0.087977,0.18573,0.087977,0.01955
0.078201,0.17595,0.087977,0.01955
0.087977,0.16618,0.078201,0.01955
0.10753,0.17595,0.087977,0.01955
0.10753,0.1564,0.087977,0.029326
0.10753,0.13685,0.078201,0.01955
0.10753,0.14663,0.068426,0.01955
0.1173,0.12708,0.068426,0.01955
0.097752,0.12708,0.078201,0.0097752
0.10753,0.12708,0.068426,0.0097752
0.087977,0.12708,0.068426,0.0097752
0.078201,0.12708,0.078201,0.0097752
0.078201,0.12708,0.068426,0.0097752
0.068426,0.13685,0.068426,0
0.078201,0.14663,0.087977,0
0.097752,0.17595,0.078201,0
0.087977,0.1955,0.068426,0
0.087977,0.18573,0.068426,0
0.078201,0.1955,0.087977,0.0097752
0.068426,0.1955,0.087977,0.0097752
0.078201,0.20528,0.078201,0.0097752
0.078201,0.1955,0.078201,0.0097752
0.068426,0.1955,0.097752,0.01955
0.078201,0.2346,0.097752,0.01955
0.078201,0.20528,0.087977,0.01955
0.068426,0.24438,0.078201,0.0097752
0.078201,0.2346,0.087977,0.01955
0.068426,0.21505,0.078201,0.01955
0.078201,0.21505,0.078201,0.0097752
0.078201,0.20528,0.078201,0.0097752
0.068426,0.20528,0.078201,0.01955
0.10753,0.20528,0.068426,0.01955
0.10753,0.1955,0.068426,0.01955
0.097752,0.18573,0.068426,0.01955
0.10753,0.1955,0.068426,0.0097752
0.10753,0.1955,0.058651,0.0097752
0.097752,0.16618,0.058651,0.0097752
0.087977,0.17595,0.068426,0.0097752
0.068426,0.17595,0.078201,0.0097752
0.068426,0.18573,0.078201,0.0097752
0.068426,0.25415,0.068426,0.01955
0.058651,0.22483,0.068426,0.0097752
0.048876,0.25415,0.078201,0.0097752
0.048876,0.28348,0.068426,0.0097752
0.048876,0.24438,0.068426,0.0097752
0.048876,0.21505,0.087977,0.0097752
0.048876,0.1955,0.078201,0.0097752
0.048876,0.18573,0.068426,0.0097752
0.039101,0.14663,0.058651,0.0097752
0.029326,0.13685,0.078201,0.0097752
0.039101,0.1173,0.068426,0.01955
0.029326,0.10753,0.068426,0.01955
0.01955,0.097752,0.058651,0.01955
0.01955,0.087977,0.058651,0.0097752
0.01955,0.078201,0.068426,0.0097752
0.01955,0.097752,0.068426,0.0097752
0.01955,0.097752,0.068426,0
0.0097752,0.10753,0.068426,0
0.0097752,0.097752,0.058651,0
0.0097752,0.097752,0.058651,0
0.0097752,0.097752,0.058651,0
0.0097752,0.097752,0.058651,0
0.0097752,0.10753,0.058651,0
0.0097752,0.10753,0.058651,0
0.01955,0.097752,0.068426,0
0.01955,0.097752,0.068426,0
0.029326,0.087977,0.058651,0
0.01955,0.087977,0.068426,0
0.01955,0.078201,0.068426,0
0.01955,0.087977,0.068426,0
0.0097752,0.10753,0.068426,0
0.0097752,0.10753,0.068426,0
0.01955,0.097752,0.068426,0
0.01955,0.097752,0.068426,0
0.029326,0.097752,0.058651,0
0.01955,0.097752,0.058651,0
0.01955,0.10753,0.058651,0
0.01955,0.10753,0.058651,0
0.0097752,0.10753,0.068426,0
0.0097752,0.12708,0.068426,0
0.0097752,0.1173,0.058651,0
0.0097752,0.1173,0.058651,0.0097752
0.0097752,0.10753,0.068426,0.01955
0,0.12708,0.058651,0.01955
0.0097752,0.1173,0.068426,0.01955
0.0097752,0.1173,0.068426,0.01955
0.01955,0.1173,0.058651,0.0097752
0.0097752,0.1173,0.048876,0.0097752
0.01955,0.1173,0.058651,0.0097752
0.01955,0.1173,0.068426,0.0097752
0.01955,0.12708,0.058651,0.0097752
0.0097752,0.13685,0.068426,0.0097752
0.0097752,0.13685,0.068426,0.0097752
0.0097752,0.12708,0.068426,0.0097752
0,0.12708,0.068426,0.0097752
0.0097752,0.12708,0.058651,0
0.0097752,0.13685,0.068426,0
0,0.1173,0.068426,0
0,0.10753,0.068426,0
0,0.097752,0.078201,0
0.0097752,0.097752,0.068426,0
0,0.097752,0.068426,0
0,0.087977,0.078201,0
0,0.087977,0.087977,0
0,0.087977,0.087977,0
0,0.087977,0.087977,0
0,0.10753,0.078201,0
0.0097752,0.10753,0.078201,0
0.0097752,0.097752,0.068426,0
0.0097752,0.087977,0.068426,0
0.01955,0.078201,0.068426,0
0.0097752,0.097752,0.058651,0
0.0097752,0.097752,0.068426,0
0.0097752,0.097752,0.058651,0
0.0097752,0.087977,0.058651,0
0.0097752,0.087977,0.068426,0
0.0097752,0.087977,0.058651,0
0.01955,0.087977,0.058651,0
0.029326,0.087977,0.068426,0
0.01955,0.087977,0.068426,0
0.0097752,0.078201,0.087977,0
0.0097752,0.078201,0.078201,0
0,0.068426,0.087977,0
0,0.068426,0.087977,0
0,0.068426,0.10753,0
0.0097752,0.068426,0.12708,0
0.0097752,0.068426,0.14663,0
0.0097752,0.078201,0.14663,0
0.0097752,0.087977,0.1564,0
0.0097752,0.078201,0.17595,0
0.0097752,0.068426,0.17595,0
0.0097752,0.078201,0.1955,0
0.0097752,0.078201,0.18573,0
0.0097752,0.078201,0.1955,0
0.0097752,0.087977,0.18573,0
0.0097752,0.097752,0.20528,0
0.0097752,0.087977,0.22483,0
0.0097752,0.078201,0.20528,0.0097752
0.0097752,0.087977,0.21505,0.01955
0.0097752,0.087977,0.22483,0.029326
0.0097752,0.087977,0.20528,0.029326
0.01955,0.078201,0.20528,0.029326
0.01955,0.078201,0.1955,0.058651
0.0097752,0.078201,0.22483,0.078201
0.0097752,0.068426,0.22483,0.097752
0.0097752,0.058651,0.21505,0.1173
0.0097752,0.058651,0.21505,0.14663
0.0097752,0.058651,0.22483,0.13685
0,0.058651,0.2346,0.14663
0.0097752,0.058651,0.21505,0.13685
0.0097752,0.058651,0.22483,0.14663
0.01955,0.048876,0.25415,0.13685
0.0097752,0.048876,0.2346,0.12708
0.0097752,0.048876,0.22483,0.13685
0.0097752,0.048876,0.18573,0.16618
0.0097752,0.058651,0.1955,0.1564
0.0097752,0.068426,0.22483,0.16618
0.0097752,0.058651,0.20528,0.24438
0,0.058651,0.1955,0.28348
0,0.048876,0.20528,0.30303
0,0.058651,0.17595,0.36168
0,0.058651,0.21505,0.36168
0,0.058651,0.22483,0.35191
0,0.058651,0.21505,0.37146
0,0.058651,0.1955,0.39101
0,0.058651,0.20528,0.48876
0,0.058651,0.1955,0.52786
0,0.058651,0.1955,0.50831
0,0.068426,0.20528,0.43011
0,0.058651,0.18573,0.41056
0,0.058651,0.18573,0.40078
0,0.058651,0.21505,0.43011
0,0.058651,0.24438,0.44966
0.0097752,0.058651,0.21505,0.42033
0,0.048876,0.1955,0.40078
0,0.048876,0.20528,0.41056
0,0.048876,0.21505,0.40078
0,0.048876,0.24438,0.43988
0,0.048876,0.24438,0.37146
0,0.048876,0.24438,0.34213
0,0.058651,0.25415,0.34213
0,0.068426,0.22483,0.31281
0,0.068426,0.24438,0.31281
0,0.068426,0.21505,0.34213
0,0.068426,0.1955,0.34213
0,0.058651,0.18573,0.32258
0,0.058651,0.16618,0.32258
0,0.058651,0.16618,0.39101
0,0.048876,0.13685,0.37146
0,0.058651,0.1173,0.34213
0,0.048876,0.1173,0.33236
0,0.048876,0.097752,0.31281
0,0.048876,0.097752,0.28348
0,0.058651,0.087977,0.28348
0,0.048876,0.078201,0.28348
0,0.048876,0.078201,0.24438
0,0.058651,0.068426,0.22483
0,0.058651,0.068426,0.25415
0,0.058651,0.058651,0.2346
0,0.058651,0.058651,0.1955
0,0.048876,0.058651,0.16618
0,0.058651,0.068426,0.1564
0,0.058651,0.068426,0.12708
0,0.058651,0.068426,0.1173
0,0.058651,0.068426,0.13685
0,0.068426,0.078201,0.1173
0,0.068426,0.078201,0.1173
0,0.058651,0.087977,0.12708
0,0.058651,0.097752,0.16618
0,0.048876,0.097752,0.1564
0,0.048876,0.087977,0.13685
0,0.048876,0.087977,0.13685
0,0.048876,0.087977,0.1173
0,0.048876,0.097752,0.1173
0,0.048876,0.097752,0.12708
0,0.039101,0.10753,0.12708
0,0.039101,0.12708,0.12708
0,0.039101,0.1173,0.1173
0.01955,0.048876,0.12708,0.10753
0.01955,0.039101,0.10753,0.13685
0.039101,0.048876,0.10753,0.1173
0.058651,0.048876,0.097752,0.1173
0.068426,0.048876,0.12708,0.1173
0.10753,0.048876,0.14663,0.097752
0.1173,0.048876,0.13685,0.097752
0.12708,0.048876,0.14663,0.097752
0.1173,0.048876,0.14663,0.097752
0.17595,0.048876,0.12708,0.087977
0.16618,0.048876,0.1173,0.078201
0.1955,0.048876,0.1173,0.10753
0.22483,0.048876,0.10753,0.10753
0.21505,0.039101,0.10753,0.10753
0.21505,0.048876,0.097752,0.087977
0.22483,0.048876,0.097752,0.10753
0.1955,0.048876,0.12708,0.097752
0.1955,0.048876,0.1173,0.087977
0.21505,0.048876,0.12708,0.087977
0.2346,0.048876,0.12708,0.097752
0.2346,0.058651,0.12708,0.087977
0.25415,0.058651,0.13685,0.078201
0.22483,0.058651,0.13685,0.068426
0.25415,0.058651,0.14663,0.068426
0.28348,0.058651,0.13685,0.068426
0.29326,0.068426,0.13685,0.087977
0.28348,0.068426,0.13685,0.087977
0.26393,0.068426,0.12708,0.078201
0.2346,0.068426,0.12708,0.078201
0.22483,0.068426,0.1173,0.068426
0.24438,0.068426,0.10753,0.058651
0.24438,0.058651,0.10753,0.058651
0.25415,0.058651,0.1173,0.058651
0.26393,0.058651,0.12708,0.048876
0.24438,0.058651,0.10753,0.048876
0.24438,0.068426,0.097752,0.039101
0.25415,0.068426,0.097752,0.048876
0.29326,0.068426,0.10753,0.048876
0.26393,0.058651,0.097752,0.048876
0.24438,0.058651,0.10753,0.039101
0.26393,0.068426,0.097752,0.039101
0.24438,0.068426,0.087977,0.039101
0.29326,0.078201,0.087977,0.048876
0.32258,0.068426,0.10753,0.029326
0.33236,0.068426,0.10753,0.039101
0.2737,0.068426,0.10753,0.039101
0.29326,0.058651,0.1173,0.039101
0.38123,0.058651,0.1173,0.029326
0.51808,0.058651,0.10753,0.029326
0.56696,0.058651,0.10753,0.029326
0.62561,0.048876,0.10753,0.01955
0.59629,0.048876,0.10753,0.029326
0.56696,0.048876,0.1173,0.029326
0.63539,0.058651,0.1173,0.01955
0.73314,0.058651,0.1173,0.01955
0.76246,0.058651,0.12708,0.01955
0.77224,0.058651,0.1173,0.01955
0.72336,0.058651,0.1173,0.029326
0.65494,0.048876,0.1173,0.029326
0.57674,0.068426,0.1173,0.029326
0.56696,0.068426,0.1173,0.01955
0.53763,0.068426,0.10753,0.01955
0.45943,0.068426,0.10753,0.01955
0.40078,0.058651,0.097752,0.01955
0.34213,0.058651,0.087977,0.01955
0.28348,0.058651,0.087977,0.029326
0.24438,0.058651,0.10753,0.029326
0.2346,0.068426,0.1173,0.01955
0.22483,0.068426,0.10753,0.01955
0.18573,0.078201,0.10753,0.0097752
0.1564,0.078201,0.10753,0.0097752
0.14663,0.078201,0.087977,0.0097752
0.12708,0.068426,0.087977,0.01955
0.1173,0.068426,0.097752,0.01955
0.1173,0.078201,0.087977,0.01955
0.12708,0.078201,0.087977,0.029326
0.1173,0.078201,0.087977,0.01955
0.097752,0.078201,0.078201,0.01955
0.097752,0.078201,0.068426,0.01955
0.097752,0.087977,0.068426,0.0097752
0.087977,0.10753,0.078201,0.0097752
0.10753,0.10753,0.078201,0.0097752
0.10753,0.10753,0.068426,0.0097752
0.1173,0.12708,0.068426,0.0097752
0.12708,0.13685,0.078201,0.0097752
0.14663,0.13685,0.068426,0
0.13685,0.13685,0.058651,0
0.1173,0.13685,0.078201,0
0.10753,0.13685,0.078201,0
0.097752,0.12708,0.087977,0
0.087977,0.12708,0.087977,0
0.087977,0.12708,0.078201,0
0.097752,0.12708,0.078201,0
0.10753,0.13685,0.097752,0
0.097752,0.13685,0.097752,0
0.097752,0.14663,0.087977,0
0.097752,0.16618,0.087977,0
0.087977,0.1564,0.10753,0
0.10753,0.14663,0.087977,0
0.10753,0.1564,0.097752,0
0.1173,0.1564,0.097752,0
0.10753,0.14663,0.097752,0
0.097752,0.14663,0.087977,0
0.10753,0.13685,0.087977,0
0.10753,0.1564,0.097752,0
0.10753,0.13685,0.087977,0
0.10753,0.13685,0.087977,0
0.097752,0.13685,0.097752,0
0.097752,0.13685,0.087977,0
0.097752,0.13685,0.087977,0
0.097752,0.13685,0.078201,0
0.087977,0.1564,0.078201,0
0.087977,0.17595,0.068426,0
0.1173,0.17595,0.078201,0
0.097752,0.20528,0.078201,0
0.087977,0.18573,0.078201,0
0.078201,0.18573,0.078201,0
0.068426,0.1955,0.078201,0
0.058651,0.1955,0.068426,0
0.058651,0.18573,0.078201,0
0.048876,0.18573,0.087977,0
0.058651,0.18573,0.078201,0
0.087977,0.20528,0.087977,0
0.087977,0.1955,0.097752,0
0.087977,0.21505,0.097752,0
0.097752,0.21505,0.087977,0
0.10753,0.20528,0.10753,0
0.10753,0.20528,0.097752,0
0.10753,0.1955,0.097752,0
0.097752,0.20528,0.097752,0
0.078201,0.1955,0.10753,0
0.087977,0.18573,0.097752,0
0.078201,0.1955,0.087977,0
0.078201,0.18573,0.097752,0
0.078201,0.16618,0.087977,0
0.078201,0.14663,0.087977,0.0097752
0.068426,0.13685,0.087977,0
0.058651,0.1173,0.087977,0
0.048876,0.1173,0.078201,0.0097752
0.039101,0.10753,0.087977,0.0097752
0.039101,0.097752,0.097752,0.0097752
0.039101,0.1173,0.097752,0
0.029326,0.17595,0.097752,0
0.01955,0.17595,0.097752,0
0.01955,0.1564,0.14663,0
0.01955,0.17595,0.14663,0
0.01955,0.18573,0.1564,0
0.0097752,0.17595,0.14663,0
0.0097752,0.1564,0.13685,0
0.0097752,0.13685,0.14663,0
0.01955,0.12708,0.12708,0
0.01955,0.1173,0.1173,0
0.0097752,0.10753,0.12708,0
0.039101,0.097752,0.1173,0
0.048876,0.097752,0.1173,0
0.048876,0.097752,0.10753,0
0.048876,0.087977,0.10753,0
0.068426,0.087977,0.097752,0
0.058651,0.087977,0.10753,0
0.039101,0.087977,0.097752,0
0.039101,0.078201,0.097752,0
0.029326,0.078201,0.097752,0
0.029326,0.087977,0.097752,0
0.01955,0.087977,0.087977,0
0.01955,0.078201,0.087977,0
0.01955,0.078201,0.078201,0
0.01955,0.078201,0.078201,0
0.01955,0.087977,0.068426,0
0.01955,0.087977,0.078201,0
0.01955,0.097752,0.078201,0
0.01955,0.087977,0.078201,0
0.01955,0.087977,0.078201,0
0.01955,0.087977,0.078201,0
0.01955,0.087977,0.078201,0
0.01955,0.097752,0.078201,0
0.029326,0.087977,0.078201,0
0.01955,0.10753,0.087977,0
0.0097752,0.10753,0.097752,0
0.0097752,0.12708,0.087977,0
0.0097752,0.1173,0.087977,0
0.01955,0.10753,0.097752,0
0.0097752,0.1173,0.087977,0
0.0097752,0.1173,0.087977,0
0.0097752,0.1173,0.087977,0
0,0.10753,0.097752,0
0,0.10753,0.087977,0
0,0.1173,0.097752,0
0,0.10753,0.097752,0
0,0.097752,0.087977,0
0.0097752,0.097752,0.087977,0
0.0097752,0.10753,0.097752,0
0,0.097752,0.087977,0
0,0.097752,0.087977,0
0,0.097752,0.087977,0
0,0.078201,0.078201,0
0,0.087977,0.078201,0.0097752
0,0.087977,0.068426,0.0097752
0,0.087977,0.068426,0.01955
0,0.087977,0.068426,0.01955
0,0.10753,0.068426,0.01955
0,0.1173,0.068426,0.029326
0,0.1173,0.058651,0.039101
0,0.10753,0.058651,0.068426
0,0.10753,0.048876,0.068426
0,0.10753,0.068426,0.068426
0.0097752,0.10753,0.068426,0.078201
0.01955,0.1173,0.078201,0.078201
0.01955,0.10753,0.087977,0.097752
0.0097752,0.097752,0.087977,0.1173
0.01955,0.10753,0.078201,0.10753
0.0097752,0.097752,0.078201,0.097752
0.0097752,0.087977,0.078201,0.097752
0.0097752,0.097752,0.078201,0.13685
0.0097752,0.087977,0.078201,0.1173
0.0097752,0.097752,0.078201,0.12708
0.0097752,0.097752,0.068426,0.1173
0.0097752,0.087977,0.068426,0.1173
0.01955,0.10753,0.068426,0.10753
0.01955,0.10753,0.078201,0.10753
0.0097752,0.10753,0.078201,0.10753
0.0097752,0.10753,0.078201,0.097752
0.0097752,0.087977,0.078201,0.14663
0.0097752,0.087977,0.078201,0.1564
0,0.097752,0.087977,0.13685
0,0.087977,0.087977,0.13685
0,0.087977,0.087977,0.18573
0,0.087977,0.097752,0.1955
0,0.087977,0.097752,0.1955
0,0.087977,0.097752,0.20528
0,0.087977,0.10753,0.2346
0,0.078201,0.1173,0.22483
0,0.078201,0.12708,0.29326
0,0.078201,0.12708,0.34213
0,0.087977,0.13685,0.37146
0,0.078201,0.13685,0.39101
0,0.078201,0.12708,0.40078
0,0.078201,0.13685,0.45943
0,0.078201,0.14663,0.42033
0,0.068426,0.14663,0.35191
0,0.078201,0.16618,0.33236
0,0.068426,0.18573,0.42033
0,0.068426,0.1955,0.46921
0,0.068426,0.20528,0.52786
0,0.078201,0.18573,0.49853
0,0.068426,0.18573,0.49853
0,0.068426,0.17595,0.46921
0,0.058651,0.17595,0.48876
0,0.058651,0.18573,0.44966
0,0.058651,0.17595,0.43011
0,0.058651,0.1564,0.40078
0,0.058651,0.16618,0.38123
0,0.058651,0.16618,0.36168
0,0.058651,0.18573,0.31281
0,0.068426,0.18573,0.26393
0,0.078201,0.18573,0.29326
0,0.078201,0.17595,0.30303
0,0.078201,0.18573,0.30303
0,0.078201,0.1955,0.28348
0,0.078201,0.22483,0.29326
0,0.068426,0.2737,0.29326
0,0.068426,0.25415,0.30303
0,0.058651,0.25415,0.30303
0,0.058651,0.26393,0.26393
0,0.068426,0.26393,0.22483
0,0.058651,0.29326,0.21505
0,0.068426,0.30303,0.20528
0,0.068426,0.31281,0.17595
0,0.078201,0.33236,0.1564
0,0.068426,0.32258,0.14663
0,0.058651,0.30303,0.13685
0,0.058651,0.28348,0.13685
0,0.048876,0.25415,0.12708
0,0.048876,0.29326,0.1173
0,0.058651,0.28348,0.13685
0,0.048876,0.25415,0.1955
0,0.048876,0.26393,0.17595
0,0.058651,0.25415,0.1564
0,0.058651,0.26393,0.14663
0,0.058651,0.25415,0.12708
0,0.058651,0.22483,0.1173
0,0.048876,0.20528,0.1173
0,0.039101,0.20528,0.1173
0,0.039101,0.17595,0.10753
0,0.029326,0.18573,0.10753
0,0.039101,0.18573,0.097752
0,0.039101,0.16618,0.10753
0,0.029326,0.14663,0.10753
0,0.039101,0.13685,0.097752
0,0.039101,0.1564,0.1173
0,0.039101,0.17595,0.1173
0,0.039101,0.16618,0.10753
0,0.039101,0.18573,0.10753
0,0.048876,0.1564,0.10753
0,0.048876,0.14663,0.10753
0,0.048876,0.12708,0.10753
0,0.048876,0.1173,0.1173
0,0.058651,0.1173,0.12708
0,0.058651,0.10753,0.12708
0,0.068426,0.10753,0.12708
0,0.058651,0.097752,0.13685
0,0.058651,0.087977,0.13685
0,0.058651,0.078201,0.12708
0.0097752,0.048876,0.097752,0.10753
0.01955,0.058651,0.087977,0.10753
0.029326,0.048876,0.087977,0.10753
0.0097752,0.01955,0.25415,0.10753
0.83089,0.81134,0.53763,0.56696
0.67449,0.64516,0.43011,0.44966
0.55718,0.49853,0.34213,0.35191
0.45943,0.41056,0.28348,0.28348
0.36168,0.32258,0.2346,0.22483
0.30303,0.2737,0.1955,0.18573
0.28348,0.2346,0.17595,0.1564
0.25415,0.20528,0.14663,0.13685
0.22483,0.17595,0.12708,0.12708
0.18573,0.14663,0.10753,0.1173
0.1564,0.13685,0.097752,0.10753
0.13685,0.1173,0.087977,0.097752
0.12708,0.1173,0.087977,0.087977
0.10753,0.097752,0.087977,0.078201
0.10753,0.087977,0.078201,0.078201
0.1173,0.078201,0.068426,0.078201
0.10753,0.087977,0.068426,0.068426
0.097752,0.087977,0.068426,0.068426
0.087977,0.078201,0.058651,0.058651
0.078201,0.087977,0.058651,0.058651
0.068426,0.087977,0.068426,0.068426
0.068426,0.097752,0.068426,0.078201
0.058651,0.10753,0.058651,0.068426
0.048876,0.097752,0.068426,0.048876
0.058651,0.097752,0.078201,0.048876
0.068426,0.10753,0.078201,0.048876
0.068426,0.10753,0.058651,0.039101
0.058651,0.10753,0.058651,0.039101
0.068426,0.10753,0.058651,0.039101
0.068426,0.1173,0.068426,0.039101
0.068426,0.10753,0.078201,0.039101
0.068426,0.1173,0.068426,0.039101
0.048876,0.13685,0.068426,0.039101
0.048876,0.1564,0.068426,0.039101
0.048876,0.16618,0.058651,0.039101
0.048876,0.16618,0.058651,0.029326
0.058651,0.1564,0.068426,0.029326
0.048876,0.1564,0.058651,0.029326
0.048876,0.17595,0.068426,0.029326
0.039101,0.17595,0.058651,0.029326
0.029326,0.18573,0.058651,0.029326
0.029326,0.17595,0.048876,0.029326
0.01955,0.16618,0.058651,0.029326
0.01955,0.16618,0.048876,0.029326
0.0097752,0.16618,0.058651,0.029326
0.0097752,0.17595,0.068426,0.029326
0.0097752,0.17595,0.058651,0.01955
0,0.1955,0.058651,0.039101
0,0.1955,0.058651,0.039101
0,0.20528,0.058651,0.029326
0.0097752,0.22483,0.058651,0.029326
0.0097752,0.22483,0.048876,0.01955
0.0097752,0.20528,0.048876,0.029326
0.0097752,0.1955,0.048876,0.01955
0.0097752,0.1955,0.048876,0.01955
0.0097752,0.1955,0.048876,0.01955
0.0097752,0.18573,0.048876,0.0097752
0.0097752,0.1955,0.058651,0.01955
0.01955,0.18573,0.048876,0.0097752
0.01955,0.20528,0.068426,0.01955
0.0097752,0.21505,0.078201,0.039101
0.0097752,0.26393,0.068426,0.029326
0.0097752,0.28348,0.068426,0.039101
0.0097752,0.29326,0.068426,0.048876
0,0.30303,0.058651,0.039101
0,0.30303,0.058651,0.048876
0,0.28348,0.058651,0.048876
0.0097752,0.25415,0.058651,0.058651
0,0.22483,0.068426,0.068426
0,0.21505,0.068426,0.068426
0,0.22483,0.058651,0.068426
0,0.2737,0.078201,0.068426
0,0.25415,0.087977,0.068426
0,0.22483,0.10753,0.058651
0,0.21505,0.10753,0.058651
0,0.20528,0.10753,0.068426
0,0.20528,0.12708,0.078201
0,0.1955,0.1564,0.068426
0,0.17595,0.14663,0.10753
0,0.1564,0.13685,0.10753
0,0.1564,0.13685,0.097752
0,0.13685,0.1564,0.1173
0,0.12708,0.14663,0.13685
0,0.1173,0.1564,0.13685
0,0.10753,0.14663,0.17595
0.0097752,0.087977,0.14663,0.16618
0,0.078201,0.14663,0.24438
0.0097752,0.068426,0.1564,0.26393
0,0.068426,0.14663,0.28348
0.0097752,0.058651,0.16618,0.29326
0,0.058651,0.17595,0.29326
0,0.068426,0.18573,0.29326
0,0.068426,0.1955,0.38123
0,0.068426,0.17595,0.38123
0,0.078201,0.1955,0.43011
0,0.087977,0.20528,0.43011
0,0.078201,0.21505,0.45943
0,0.068426,0.21505,0.50831
0,0.078201,0.20528,0.45943
0,0.078201,0.24438,0.43988
0,0.087977,0.2346,0.41056
0,0.087977,0.2737,0.39101
0,0.078201,0.25415,0.37146
0,0.078201,0.21505,0.36168
0,0.078201,0.21505,0.38123
0,0.078201,0.20528,0.36168
0,0.078201,0.20528,0.34213
0,0.087977,0.1955,0.39101
0,0.097752,0.1955,0.43988
0,0.097752,0.21505,0.39101
0,0.097752,0.2737,0.34213
0,0.097752,0.2346,0.32258
0,0.087977,0.26393,0.28348
0,0.087977,0.28348,0.26393
0,0.078201,0.24438,0.2346
0,0.078201,0.21505,0.24438
0,0.078201,0.2346,0.22483
0,0.068426,0.24438,0.20528
0,0.068426,0.2346,0.20528
0,0.078201,0.24438,0.21505
0,0.078201,0.24438,0.24438
0,0.078201,0.21505,0.25415
0,0.078201,0.2346,0.2737
0.0097752,0.078201,0.22483,0.24438
0.0097752,0.068426,0.20528,0.20528
0.0097752,0.068426,0.24438,0.1955
0.0097752,0.068426,0.24438,0.1564
0.0097752,0.068426,0.24438,0.14663
0,0.068426,0.2346,0.14663
0,0.078201,0.25415,0.13685
0,0.078201,0.26393,0.12708
0,0.087977,0.24438,0.1173
0,0.10753,0.2346,0.097752
0,0.10753,0.24438,0.097752
0,0.10753,0.24438,0.097752
0,0.087977,0.2737,0.097752
0,0.097752,0.30303,0.10753
0,0.097752,0.36168,0.10753
0,0.10753,0.32258,0.12708
0,0.10753,0.28348,0.13685
0,0.097752,0.34213,0.14663
0,0.097752,0.32258,0.1564
0,0.087977,0.32258,0.16618
0,0.087977,0.2737,0.1564
0,0.097752,0.24438,0.1564
0,0.087977,0.26393,0.14663
0,0.087977,0.2346,0.13685
0,0.087977,0.1955,0.12708
0,0.087977,0.17595,0.13685
0,0.1173,0.16618,0.13685
0,0.1173,0.1564,0.1564
0,0.10753,0.1564,0.1564
0,0.10753,0.13685,0.14663
0,0.10753,0.1173,0.1564
0,0.097752,0.10753,0.1564
0.0097752,0.097752,0.12708,0.14663
0,0.087977,0.10753,0.12708
0,0.087977,0.10753,0.12708
0,0.087977,0.10753,0.13685
0,0.078201,0.097752,0.13685
0,0.078201,0.10753,0.12708
0,0.078201,0.10753,0.1173
0,0.078201,0.10753,0.1173
0,0.078201,0.10753,0.1173
0,0.068426,0.10753,0.10753
0,0.058651,0.10753,0.10753
0,0.058651,0.10753,0.097752
0,0.058651,0.1173,0.097752
0,0.068426,0.14663,0.087977
0,0.068426,0.12708,0.078201
0,0.078201,0.12708,0.078201
0,0.078201,0.13685,0.078201
0,0.078201,0.14663,0.078201
0,0.078201,0.13685,0.058651
0,0.058651,0.13685,0.068426
0,0.058651,0.13685,0.058651
0,0.048876,0.12708,0.068426
0,0.048876,0.12708,0.078201
0,0.048876,0.14663,0.068426
0,0.048876,0.13685,0.068426
0,0.058651,0.13685,0.058651
0,0.058651,0.13685,0.058651
0,0.058651,0.12708,0.078201
0,0.058651,0.1173,0.068426
0,0.068426,0.10753,0.068426
0,0.058651,0.12708,0.087977
0,0.058651,0.1173,0.078201
0,0.048876,0.1173,0.068426
0,0.058651,0.13685,0.068426
0,0.048876,0.13685,0.087977
0,0.058651,0.1564,0.068426
0,0.058651,0.16618,0.068426
0,0.048876,0.1564,0.068426
0,0.058651,0.1564,0.068426
0,0.048876,0.16618,0.048876
0,0.058651,0.14663,0.048876
0,0.058651,0.14663,0.039101
0,0.058651,0.12708,0.048876
0,0.058651,0.12708,0.048876
0,0.048876,0.1173,0.048876
0,0.048876,0.12708,0.039101
0,0.048876,0.13685,0.039101
0,0.048876,0.12708,0.039101
0,0.048876,0.1173,0.048876
0,0.058651,0.12708,0.039101
0,0.039101,0.14663,0.029326
0,0.039101,0.16618,0.01955
0,0.039101,0.1564,0.029326
0,0.039101,0.16618,0.029326
0,0.048876,0.1564,0.029326
0,0.048876,0.14663,0.01955
0,0.048876,0.13685,0.0097752
0,0.058651,0.12708,0.0097752
0,0.058651,0.1173,0.0097752
0,0.058651,0.1173,0.0097752
0,0.058651,0.12708,0.0097752
0,0.048876,0.1173,0.0097752
0,0.048876,0.1173,0.0097752
0,0.048876,0.14663,0.0097752
0,0.048876,0.20528,0.0097752
0,0.048876,0.18573,0.0097752
0,0.048876,0.20528,0.01955
0,0.048876,0.1955,0.029326
0,0.048876,0.16618,0.029326
0.0097752,0.048876,0.16618,0.01955
0.0097752,0.039101,0.16618,0.01955
0.0097752,0.039101,0.16618,0.0097752
0.0097752,0.039101,0.1564,0.0097752
0.029326,0.039101,0.14663,0.01955
0.039101,0.039101,0.14663,0.01955
0.068426,0.039101,0.1564,0.0097752
0.068426,0.039101,0.14663,0.0097752
0.078201,0.039101,0.14663,0.0097752
0.087977,0.039101,0.1564,0.0097752
0.087977,0.039101,0.17595,0.0097752
0.078201,0.039101,0.17595,0
0.078201,0.039101,0.1564,0
0.097752,0.048876,0.16618,0
0.1173,0.048876,0.1955,0
0.12708,0.048876,0.18573,0
0.13685,0.039101,0.1955,0
0.12708,0.048876,0.17595,0.0097752
0.12708,0.048876,0.18573,0.0097752
0.13685,0.048876,0.17595,0.0097752
0.13685,0.048876,0.1955,0.0097752
0.14663,0.048876,0.17595,0
0.1564,0.039101,0.16618,0.0097752
0.16618,0.039101,0.17595,0.01955
0.16618,0.039101,0.17595,0.0097752
0.17595,0.039101,0.16618,0.0097752
0.1955,0.039101,0.17595,0.0097752
0.17595,0.039101,0.17595,0.0097752
0.17595,0.039101,0.1955,0.0097752
0.18573,0.039101,0.18573,0.0097752
0.18573,0.029326,0.1955,0.0097752
0.22483,0.039101,0.18573,0.0097752
0.22483,0.048876,0.20528,0.0097752
0.24438,0.048876,0.18573,0.0097752
0.28348,0.048876,0.18573,0
0.2737,0.048876,0.20528,0
0.25415,0.048876,0.21505,0
0.2737,0.048876,0.21505,0
0.28348,0.048876,0.1955,0
0.28348,0.048876,0.1955,0
0.33236,0.039101,0.17595,0
0.32258,0.048876,0.18573,0
0.32258,0.048876,0.16618,0
0.39101,0.039101,0.17595,0
0.46921,0.039101,0.18573,0
0.52786,0.048876,0.16618,0
0.50831,0.048876,0.1564,0
0.44966,0.048876,0.1564,0
0.48876,0.058651,0.13685,0
0.48876,0.048876,0.14663,0
0.46921,0.048876,0.13685,0
0.43988,0.048876,0.13685,0
0.46921,0.039101,0.13685,0
0.47898,0.048876,0.13685,0
0.43011,0.048876,0.13685,0
0.41056,0.058651,0.12708,0
0.39101,0.058651,0.10753,0
0.41056,0.068426,0.12708,0
0.36168,0.068426,0.1173,0
0.36168,0.097752,0.10753,0
0.42033,0.12708,0.097752,0
0.38123,0.12708,0.097752,0
0.35191,0.12708,0.097752,0
0.33236,0.1173,0.12708,0
0.30303,0.1173,0.1173,0
0.2737,0.10753,0.1173,0
0.24438,0.097752,0.1173,0
0.21505,0.087977,0.097752,0
0.18573,0.087977,0.097752,0
0.16618,0.078201,0.10753,0
0.14663,0.068426,0.097752,0
0.12708,0.078201,0.1173,0
0.12708,0.068426,0.10753,0
0.1173,0.068426,0.097752,0
0.12708,0.078201,0.10753,0
0.1173,0.078201,0.097752,0
0.13685,0.078201,0.10753,0
0.1173,0.068426,0.1173,0
0.13685,0.068426,0.097752,0
0.13685,0.068426,0.10753,0
0.14663,0.058651,0.097752,0
0.13685,0.068426,0.087977,0
0.13685,0.068426,0.087977,0
0.12708,0.058651,0.087977,0
0.1173,0.058651,0.078201,0
0.10753,0.058651,0.10753,0
0.12708,0.068426,0.10753,0
0.12708,0.068426,0.10753,0
0.1173,0.087977,0.1173,0
0.12708,0.097752,0.1173,0
0.13685,0.087977,0.1173,0
0.13685,0.078201,0.1173,0
0.12708,0.078201,0.10753,0
0.12708,0.097752,0.1173,0
0.12708,0.10753,0.12708,0
0.10753,0.14663,0.13685,0
0.10753,0.14663,0.12708,0
0.12708,0.13685,0.12708,0
0.1173,0.13685,0.13685,0
0.087977,0.12708,0.1173,0
0.087977,0.14663,0.12708,0
0.097752,0.1564,0.12708,0
0.097752,0.14663,0.14663,0
0.097752,0.17595,0.1564,0
0.087977,0.18573,0.1564,0
0.078201,0.1955,0.14663,0
0.068426,0.18573,0.1955,0
0.087977,0.1955,0.1955,0
0.087977,0.18573,0.18573,0
0.097752,0.18573,0.18573,0
0.097752,0.18573,0.18573,0
0.087977,0.18573,0.17595,0
0.087977,0.18573,0.16618,0
0.068426,0.22483,0.17595,0
0.068426,0.21505,0.16618,0
0.078201,0.25415,0.18573,0
0.068426,0.26393,0.16618,0
0.068426,0.25415,0.14663,0
0.087977,0.2737,0.14663,0
0.10753,0.2737,0.13685,0
0.087977,0.26393,0.12708,0
0.097752,0.28348,0.12708,0
0.097752,0.29326,0.12708,0
0.097752,0.2737,0.1173,0
0.078201,0.28348,0.10753,0
0.078201,0.31281,0.1173,0
0.068426,0.30303,0.12708,0
0.068426,0.29326,0.1173,0
0.058651,0.2737,0.14663,0
0.048876,0.31281,0.13685,0
0.048876,0.29326,0.13685,0
0.058651,0.29326,0.13685,0
0.058651,0.32258,0.12708,0
0.048876,0.33236,0.1173,0
0.039101,0.33236,0.13685,0
0.039101,0.40078,0.12708,0
0.039101,0.43988,0.12708,0
0.029326,0.43988,0.13685,0
0.029326,0.42033,0.12708,0
0.029326,0.47898,0.1173,0
0.01955,0.43988,0.1173,0
0.01955,0.42033,0.1173,0.0097752
0.01955,0.49853,0.10753,0.01955
0.01955,0.43988,0.1173,0.0097752
0.0097752,0.42033,0.10753,0.0097752
0.0097752,0.41056,0.1173,0.029326
0.0097752,0.35191,0.10753,0.039101
0.0097752,0.33236,0.097752,0.039101
0,0.40078,0.10753,0.048876
0,0.41056,0.1173,0.048876
0,0.38123,0.10753,0.087977
0.0097752,0.41056,0.097752,0.087977
0,0.43988,0.10753,0.1173
0,0.37146,0.10753,0.1173
0,0.35191,0.10753,0.10753
0,0.35191,0.10753,0.13685
0,0.34213,0.097752,0.13685
0,0.34213,0.10753,0.12708
0,0.35191,0.10753,0.13685
0,0.34213,0.10753,0.13685
0,0.33236,0.13685,0.1564
0,0.29326,0.12708,0.14663
0,0.24438,0.13685,0.16618
0,0.20528,0.14663,0.16618
0,0.17595,0.14663,0.1564
0,0.14663,0.14663,0.17595
0,0.13685,0.1564,0.16618
0,0.10753,0.1564,0.17595
0,0.097752,0.16618,0.22483
0,0.087977,0.14663,0.22483
0,0.078201,0.14663,0.18573
0,0.078201,0.1564,0.26393
0,0.068426,0.16618,0.2737
0,0.058651,0.16618,0.30303
0,0.058651,0.14663,0.43011
0,0.087977,0.1564,0.48876
0,0.078201,0.17595,0.43988
0,0.087977,0.16618,0.50831
0,0.097752,0.18573,0.44966
0,0.097752,0.18573,0.40078
0,0.078201,0.20528,0.38123
0,0.078201,0.1955,0.41056
0,0.078201,0.18573,0.41056
0,0.078201,0.17595,0.44966
0,0.068426,0.17595,0.42033
0.0097752,0.078201,0.18573,0.44966
0,0.078201,0.18573,0.43988
0,0.087977,0.18573,0.39101
0,0.087977,0.18573,0.39101
0,0.078201,0.18573,0.37146
0,0.087977,0.1955,0.38123
0.0097752,0.087977,0.21505,0.38123
0.0097752,0.1173,0.20528,0.44966
0.01955,0.13685,0.22483,0.43988
0.0097752,0.13685,0.2346,0.39101
0.029326,0.12708,0.22483,0.35191
0.01955,0.1173,0.21505,0.35191
0.01955,0.1173,0.20528,0.40078
0.0097752,0.10753,0.1955,0.45943
0.0097752,0.10753,0.17595,0.49853
0.0097752,0.097752,0.1955,0.45943
0.0097752,0.097752,0.1955,0.47898
0.0097752,0.1173,0.20528,0.50831
0.0097752,0.1173,0.1955,0.45943
0.0097752,0.1173,0.17595,0.41056
0.0097752,0.1173,0.20528,0.38123
0.0097752,0.10753,0.21505,0.38123
0,0.1173,0.20528,0.31281
0,0.10753,0.20528,0.2737
0,0.12708,0.21505,0.2346
0,0.12708,0.21505,0.20528
0,0.12708,0.20528,0.17595
0,0.10753,0.20528,0.16618
0,0.10753,0.1955,0.14663
0,0.10753,0.18573,0.13685
0,0.10753,0.17595,0.13685
0,0.097752,0.18573,0.13685
0,0.097752,0.1955,0.1173
0.0097752,0.087977,0.18573,0.12708
0.0097752,0.087977,0.24438,0.12708
0.0097752,0.087977,0.22483,0.13685
0.0097752,0.087977,0.22483,0.1173
0.0097752,0.087977,0.2346,0.10753
0.0097752,0.078201,0.24438,0.097752
0.0097752,0.068426,0.24438,0.10753
0.0097752,0.068426,0.22483,0.087977
0,0.068426,0.2737,0.087977
0,0.068426,0.25415,0.087977
0,0.078201,0.25415,0.097752
0.0097752,0.078201,0.21505,0.1173
0,0.078201,0.2346,0.10753
0,0.068426,0.1955,0.12708
0,0.068426,0.17595,0.12708
0,0.068426,0.18573,0.12708
0,0.068426,0.1564,0.1173
0,0.078201,0.13685,0.10753
0,0.068426,0.17595,0.1173
0,0.068426,0.14663,0.10753
0,0.078201,0.14663,0.087977
0,0.068426,0.1564,0.097752
0,0.068426,0.12708,0.10753
0,0.068426,0.1173,0.1173
0,0.068426,0.1173,0.10753
0,0.068426,0.12708,0.097752
0,0.068426,0.12708,0.087977
0,0.068426,0.10753,0.087977
0,0.058651,0.097752,0.078201
0,0.058651,0.097752,0.078201
0,0.068426,0.097752,0.078201
0,0.068426,0.1173,0.087977
0,0.068426,0.10753,0.068426
0,0.068426,0.13685,0.097752
0,0.068426,0.12708,0.097752
0,0.068426,0.13685,0.10753
0,0.058651,0.12708,0.10753
0,0.058651,0.14663,0.097752
0,0.048876,0.13685,0.1173
0,0.058651,0.13685,0.097752
0,0.048876,0.1564,0.078201
0,0.048876,0.17595,0.078201
0,0.048876,0.16618,0.078201
0,0.058651,0.14663,0.078201
0,0.048876,0.13685,0.068426
0,0.048876,0.13685,0.068426
0,0.048876,0.20528,0.048876
0,0.058651,0.1955,0.048876
0,0.058651,0.21505,0.058651
0,0.048876,0.20528,0.048876
0,0.058651,0.17595,0.048876
0,0.058651,0.17595,0.078201
0,0.058651,0.17595,0.078201
0,0.048876,0.1564,0.097752
0,0.048876,0.1564,0.097752
0,0.058651,0.17595,0.068426
0,0.048876,0.1564,0.068426
0,0.048876,0.1564,0.068426
0,0.048876,0.17595,0.068426
0,0.048876,0.16618,0.058651
0,0.058651,0.16618,0.048876
0,0.068426,0.17595,0.048876
0,0.058651,0.16618,0.058651
0,0.058651,0.17595,0.058651
0,0.058651,0.1564,0.058651
0,0.058651,0.1564,0.048876
0,0.058651,0.1564,0.048876
0,0.058651,0.14663,0.039101
0,0.058651,0.14663,0.048876
0,0.058651,0.18573,0.048876
0,0.048876,0.16618,0.039101
0,0.058651,0.13685,0.029326
0,0.068426,0.13685,0.029326
0,0.068426,0.13685,0.039101
0,0.068426,0.13685,0.039101
0,0.058651,0.13685,0.029326
0,0.058651,0.12708,0.029326
0,0.058651,0.12708,0.029326
0,0.048876,0.1173,0.01955
0,0.039101,0.1173,0.01955
0,0.039101,0.12708,0.01955
0,0.039101,0.10753,0.0097752
0,0.048876,0.097752,0.0097752
0,0.039101,0.10753,0.0097752
0,0.048876,0.1173,0.0097752
0,0.039101,0.10753,0.0097752
0,0.039101,0.13685,0.0097752
0,0.039101,0.1173,0.0097752
0,0.048876,0.12708,0.0097752
0,0.039101,0.12708,0.0097752
0,0.058651,0.1173,0.0097752
0,0.058651,0.1173,0
0,0.048876,0.1173,0
0.0097752,0.048876,0.1173,0.0097752
0.0097752,0.048876,0.1173,0.0097752
0.0097752,0.048876,0.1173,0
0.0097752,0.048876,0.12708,0
0.01955,0.048876,0.13685,0
0.01955,0.048876,0.13685,0.0097752
0.029326,0.048876,0.12708,0
0.039101,0.048876,0.1173,0
0.048876,0.058651,0.14663,0
0.048876,0.058651,0.13685,0
0.048876,0.058651,0.12708,0
0.058651,0.058651,0.12708,0
0.058651,0.048876,0.1173,0
0.058651,0.058651,0.10753,0
0.068426,0.048876,0.097752,0
0.078201,0.058651,0.10753,0
0.087977,0.048876,0.097752,0
0.097752,0.039101,0.097752,0
0.087977,0.048876,0.087977,0
0.097752,0.048876,0.097752,0
0.10753,0.039101,0.087977,0
0.10753,0.039101,0.087977,0
0.12708,0.039101,0.068426,0
0.1173,0.039101,0.078201,0
0.097752,0.039101,0.078201,0
0.1173,0.039101,0.078201,0
0.14663,0.039101,0.087977,0
0.1564,0.048876,0.087977,0
0.18573,0.048876,0.087977,0
0.17595,0.048876,0.087977,0
0.17595,0.058651,0.10753,0
0.20528,0.068426,0.087977,0
0.1955,0.078201,0.087977,0
0.1955,0.078201,0.078201,0
0.21505,0.078201,0.097752,0
0.24438,0.078201,0.097752,0
0.26393,0.068426,0.087977,0
0.2346,0.068426,0.087977,0
0.25415,0.058651,0.087977,0
0.24438,0.048876,0.087977,0
0.26393,0.058651,0.078201,0
0.30303,0.058651,0.068426,0
0.29326,0.058651,0.068426,0
0.29326,0.058651,0.087977,0
0.29326,0.058651,0.10753,0
0.26393,0.048876,0.10753,0
0.24438,0.048876,0.097752,0
0.22483,0.058651,0.097752,0
0.2346,0.048876,0.087977,0
0.35191,0.048876,0.087977,0
0.34213,0.048876,0.078201,0
0.31281,0.039101,0.087977,0
0.29326,0.048876,0.078201,0
0.26393,0.048876,0.078201,0
0.2737,0.039101,0.078201,0
0.28348,0.048876,0.078201,0
0.29326,0.048876,0.068426,0
0.2737,0.048876,0.078201,0
0.26393,0.039101,0.078201,0
0.28348,0.048876,0.068426,0
0.31281,0.039101,0.068426,0
0.35191,0.039101,0.078201,0
0.36168,0.039101,0.068426,0
0.36168,0.048876,0.078201,0
0.41056,0.048876,0.078201,0
0.45943,0.039101,0.058651,0
0.53763,0.048876,0.078201,0
0.62561,0.048876,0.068426,0
0.62561,0.048876,0.068426,0
0.55718,0.048876,0.078201,0
0.50831,0.058651,0.068426,0
0.46921,0.058651,0.068426,0
0.42033,0.048876,0.078201,0
0.42033,0.058651,0.078201,0
0.40078,0.058651,0.078201,0
0.35191,0.048876,0.068426,0
0.31281,0.048876,0.068426,0
0.29326,0.048876,0.068426,0
0.2737,0.048876,0.068426,0
0.26393,0.048876,0.068426,0
0.22483,0.058651,0.058651,0
0.18573,0.048876,0.058651,0
0.1564,0.048876,0.058651,0
0.12708,0.048876,0.058651,0
0.12708,0.039101,0.058651,0
0.10753,0.039101,0.048876,0
0.087977,0.048876,0.068426,0
0.078201,0.039101,0.068426,0
0.068426,0.039101,0.058651,0
0.068426,0.048876,0.068426,0
0.078201,0.048876,0.068426,0
0.068426,0.048876,0.058651,0
0.068426,0.048876,0.058651,0
0.078201,0.048876,0.058651,0
0.078201,0.058651,0.068426,0
0.097752,0.048876,0.058651,0
0.097752,0.058651,0.068426,0
0.10753,0.068426,0.078201,0
0.12708,0.068426,0.078201,0
0.1173,0.078201,0.078201,0
0.097752,0.078201,0.087977,0
0.097752,0.097752,0.078201,0
0.1173,0.087977,0.068426,0
0.1173,0.078201,0.078201,0
0.13685,0.097752,0.068426,0
0.12708,0.087977,0.078201,0
0.12708,0.087977,0.078201,0
0.1173,0.1173,0.087977,0
0.1173,0.12708,0.087977,0
0.10753,0.1173,0.087977,0
0.10753,0.13685,0.078201,0
0.097752,0.13685,0.078201,0
0.087977,0.13685,0.078201,0
0.12708,0.13685,0.078201,0
0.1173,0.13685,0.078201,0
0.10753,0.14663,0.078201,0
0.097752,0.14663,0.068426,0
0.087977,0.14663,0.058651,0
0.087977,0.14663,0.058651,0
0.097752,0.1564,0.058651,0
0.097752,0.18573,0.068426,0
0.097752,0.17595,0.068426,0
0.087977,0.21505,0.068426,0
0.087977,0.21505,0.078201,0
0.087977,0.22483,0.068426,0
0.097752,0.26393,0.078201,0
0.087977,0.2737,0.078201,0
0.087977,0.30303,0.068426,0
0.087977,0.30303,0.068426,0
0.097752,0.29326,0.078201,0
0.087977,0.2737,0.068426,0
0.078201,0.25415,0.068426,0
0.078201,0.26393,0.068426,0
0.097752,0.2737,0.078201,0
0.10753,0.31281,0.087977,0
0.097752,0.31281,0.078201,0
0.097752,0.32258,0.087977,0
0.097752,0.29326,0.097752,0
0.078201,0.30303,0.087977,0
0.078201,0.30303,0.087977,0
0.068426,0.33236,0.078201,0
0.068426,0.30303,0.078201,0
0.058651,0.29326,0.078201,0
0.058651,0.29326,0.068426,0
0.058651,0.26393,0.068426,0
0.048876,0.25415,0.068426,0
0.048876,0.25415,0.068426,0
0.039101,0.25415,0.078201,0
0.039101,0.29326,0.078201,0
0.029326,0.28348,0.078201,0
0.029326,0.26393,0.068426,0
0.029326,0.25415,0.058651,0
0.01955,0.2737,0.058651,0
0.01955,0.25415,0.058651,0
0.01955,0.24438,0.058651,0
0.01955,0.2346,0.068426,0
0.01955,0.2737,0.068426,0
0.0097752,0.31281,0.078201,0
0.0097752,0.36168,0.087977,0
0.0097752,0.36168,0.097752,0
0,0.34213,0.1173,0
0.0097752,0.34213,0.1173,0
0.0097752,0.30303,0.1173,0
0.0097752,0.26393,0.1173,0
0,0.22483,0.12708,0
0.0097752,0.17595,0.10753,0
0.0097752,0.1564,0.1173,0.0097752
0.0097752,0.14663,0.13685,0.0097752
0.0097752,0.12708,0.12708,0
0.0097752,0.10753,0.1564,0.0097752
0.01955,0.087977,0.14663,0.0097752
0.01955,0.078201,0.14663,0.01955
0.01955,0.078201,0.1564,0.01955
0.01955,0.068426,0.1564,0.029326
0.01955,0.068426,0.1564,0.039101
0.0097752,0.078201,0.16618,0.048876
0.0097752,0.087977,0.1564,0.058651
0.0097752,0.097752,0.16618,0.068426
0.0097752,0.087977,0.1955,0.097752
0,0.087977,0.1955,0.12708
0,0.087977,0.18573,0.14663
0,0.087977,0.1955,0.1173
0,0.087977,0.18573,0.13685
0,0.078201,0.18573,0.1564
0,0.078201,0.1955,0.1564
0,0.087977,0.18573,0.1564
0,0.087977,0.18573,0.14663
0,0.087977,0.1955,0.12708
0,0.097752,0.1955,0.13685
0,0.097752,0.17595,0.1564
0,0.10753,0.17595,0.17595
0,0.097752,0.17595,0.22483
0,0.10753,0.1564,0.22483
0,0.10753,0.16618,0.2346
0,0.10753,0.1564,0.28348
0,0.1173,0.16618,0.2737
0,0.1173,0.18573,0.30303
0,0.10753,0.1955,0.33236
0,0.097752,0.18573,0.31281
0,0.087977,0.17595,0.31281
0,0.087977,0.20528,0.32258
0,0.10753,0.22483,0.32258
0,0.10753,0.21505,0.31281
0,0.10753,0.22483,0.29326
0,0.097752,0.21505,0.30303
0,0.1173,0.22483,0.36168
0,0.1173,0.1955,0.38123
0,0.12708,0.17595,0.38123
0,0.12708,0.17595,0.38123
0,0.10753,0.18573,0.37146
0,0.10753,0.20528,0.38123
0,0.1173,0.17595,0.36168
0,0.1173,0.20528,0.32258
0,0.12708,0.21505,0.38123
0,0.1173,0.2346,0.45943
0,0.1173,0.20528,0.50831
0,0.10753,0.2737,0.45943
0,0.097752,0.2346,0.43988
0,0.10753,0.2737,0.46921
0,0.10753,0.33236,0.46921
0,0.1173,0.32258,0.41056
0.0097752,0.1173,0.29326,0.38123
0.0097752,0.12708,0.30303,0.37146
0.0097752,0.1173,0.29326,0.45943
0.0097752,0.1173,0.32258,0.47898
0.01955,0.10753,0.31281,0.48876
0.01955,0.097752,0.33236,0.47898
0.01955,0.087977,0.31281,0.50831
0.01955,0.087977,0.32258,0.43988
0.0097752,0.087977,0.31281,0.43988
0.0097752,0.087977,0.32258,0.54741
0.0097752,0.087977,0.37146,0.51808
0.0097752,0.087977,0.37146,0.43011
0.0097752,0.078201,0.49853,0.42033
0,0.078201,1.173,0.38123
0,0.078201,1.2219,0.33236
0,0.078201,1.0362,0.29326
0,0.078201,0.92864,0.26393
0,0.087977,0.82111,0.22483
0,0.087977,0.70381,0.2737
0,0.087977,0.60606,0.30303
0,0.087977,0.53763,0.2737
0,0.087977,0.53763,0.2346
0,0.078201,0.46921,0.1955
0,0.078201,0.40078,0.17595
0,0.078201,0.35191,0.1564
0,0.078201,0.30303,0.13685
0,0.068426,0.32258,0.1173
0,0.068426,0.30303,0.1173
0,0.058651,0.28348,0.10753
0,0.058651,0.25415,0.12708
0,0.068426,0.20528,0.12708
0,0.058651,0.18573,0.10753
0,0.058651,0.21505,0.10753
0,0.068426,0.18573,0.1173
0,0.068426,0.1564,0.1173
0.0097752,0.068426,0.17595,0.10753
0.0097752,0.058651,0.18573,0.10753
0.0097752,0.068426,0.18573,0.1173
0,0.068426,0.17595,0.1173
0.0097752,0.068426,0.17595,0.10753
0,0.068426,0.1564,0.10753
0,0.058651,0.14663,0.12708
0,0.068426,0.1564,0.14663
0,0.058651,0.16618,0.14663
0,0.058651,0.16618,0.13685
0,0.048876,0.16618,0.13685
0,0.058651,0.17595,0.13685
0,0.048876,0.16618,0.13685
0,0.048876,0.18573,0.14663
0,0.058651,0.16618,0.1564
0,0.058651,0.16618,0.14663
0.0097752,0.048876,0.18573,0.13685
0.0097752,0.048876,0.20528,0.12708
0.0097752,0.048876,0.20528,0.12708
0,0.048876,0.20528,0.13685
0,0.068426,0.18573,0.13685
0,0.068426,0.18573,0.1173
0,0.058651,0.18573,0.12708
0,0.058651,0.1564,0.10753
0,0.068426,0.17595,0.10753
0,0.058651,0.17595,0.087977
0,0.068426,0.16618,0.097752
0,0.058651,0.16618,0.087977
0,0.058651,0.17595,0.078201
0,0.058651,0.1564,0.078201
0,0.058651,0.1564,0.087977
0,0.048876,0.14663,0.097752
0,0.048876,0.14663,0.087977
0,0.058651,0.1564,0.078201
0,0.058651,0.20528,0.087977
0,0.068426,0.17595,0.097752
0,0.058651,0.16618,0.10753
0,0.048876,0.1564,0.10753
0,0.058651,0.13685,0.097752
0,0.068426,0.14663,0.087977
0,0.058651,0.1564,0.10753
0,0.058651,0.13685,0.1173
0,0.048876,0.14663,0.10753
0,0.048876,0.13685,0.087977
0,0.048876,0.12708,0.12708
0,0.048876,0.12708,0.1173
0,0.048876,0.10753,0.097752
0,0.048876,0.1173,0.097752
0,0.039101,0.1173,0.078201
0,0.039101,0.12708,0.078201
0,0.048876,0.12708,0.078201
0,0.048876,0.12708,0.087977
0,0.048876,0.1173,0.078201
0,0.039101,0.10753,0.078201
0,0.039101,0.10753,0.068426
0,0.039101,0.10753,0.068426
0,0.048876,0.097752,0.068426
0,0.039101,0.097752,0.068426
0,0.029326,0.097752,0.068426
0,0.039101,0.087977,0.068426
0,0.048876,0.097752,0.048876
0.0097752,0.039101,0.087977,0.039101
0.01955,0.048876,0.10753,0.039101
0.01955,0.048876,0.087977,0.039101
0.029326,0.058651,0.087977,0.048876
0.029326,0.048876,0.097752,0.048876
0.048876,0.048876,0.10753,0.048876
0.068426,0.048876,0.097752,0.048876
0.078201,0.048876,0.097752,0.058651
0.078201,0.048876,0.087977,0.048876
0.087977,0.048876,0.087977,0.048876
0.097752,0.048876,0.097752,0.058651
0.087977,0.048876,0.087977,0.078201
0.078201,0.058651,0.087977,0.087977
0.087977,0.058651,0.078201,0.087977
0.10753,0.048876,0.078201,0.087977
0.097752,0.048876,0.078201,0.078201
0.10753,0.048876,0.078201,0.068426
0.10753,0.058651,0.078201,0.048876
0.097752,0.048876,0.087977,0.039101
0.13685,0.048876,0.078201,0.029326
0.12708,0.048876,0.087977,0.029326
0.13685,0.039101,0.078201,0.029326
0.1564,0.048876,0.078201,0.01955
0.1564,0.048876,0.068426,0.01955
0.1564,0.048876,0.078201,0.029326
0.16618,0.058651,0.078201,0.029326
0.17595,0.058651,0.078201,0.029326
0.18573,0.058651,0.078201,0.029326
0.16618,0.058651,0.078201,0.048876
0.18573,0.058651,0.068426,0.039101
0.17595,0.048876,0.087977,0.039101
0.18573,0.048876,0.068426,0.039101
0.1955,0.058651,0.078201,0.029326
0.20528,0.048876,0.087977,0.029326
0.21505,0.048876,0.078201,0.01955
0.20528,0.048876,0.068426,0.029326
0.22483,0.048876,0.068426,0.01955
0.2346,0.058651,0.078201,0.0097752
0.26393,0.058651,0.078201,0.0097752
0.24438,0.048876,0.078201,0.0097752
0.2346,0.048876,0.078201,0.0097752
0.2346,0.048876,0.068426,0
0.22483,0.058651,0.068426,0
0.2346,0.048876,0.078201,0
0.21505,0.048876,0.078201,0
0.21505,0.039101,0.097752,0
0.2346,0.039101,0.087977,0
0.29326,0.039101,0.078201,0
0.32258,0.039101,0.068426,0
0.30303,0.039101,0.068426,0
0.32258,0.039101,0.068426,0
0.30303,0.039101,0.068426,0.0097752
0.2737,0.039101,0.078201,0.01955
0.33236,0.039101,0.068426,0.029326
0.33236,0.048876,0.068426,0.01955
0.35191,0.058651,0.068426,0.01955
0.36168,0.058651,0.068426,0.01955
0.33236,0.058651,0.068426,0.0097752
0.40078,0.058651,0.078201,0.01955
0.35191,0.048876,0.078201,0.01955
0.34213,0.048876,0.078201,0.0097752
0.30303,0.048876,0.078201,0.0097752
0.31281,0.039101,0.068426,0.0097752
0.31281,0.048876,0.068426,0.0097752
0.37146,0.048876,0.058651,0.0097752
0.40078,0.039101,0.058651,0.0097752
0.36168,0.048876,0.078201,0.0097752
0.37146,0.039101,0.068426,0
0.37146,0.039101,0.058651,0
0.34213,0.039101,0.068426,0
0.31281,0.039101,0.078201,0
0.28348,0.048876,0.068426,0
0.25415,0.048876,0.068426,0
0.24438,0.039101,0.078201,0
0.1955,0.039101,0.078201,0
0.17595,0.048876,0.087977,0
0.1564,0.048876,0.087977,0
0.14663,0.048876,0.087977,0
0.13685,0.048876,0.078201,0
0.12708,0.058651,0.087977,0
0.10753,0.058651,0.087977,0
0.1173,0.048876,0.078201,0
0.1173,0.058651,0.078201,0
0.10753,0.058651,0.087977,0
0.097752,0.058651,0.078201,0
0.1173,0.068426,0.087977,0
0.10753,0.068426,0.078201,0
0.097752,0.068426,0.078201,0
0.10753,0.068426,0.087977,0
0.1173,0.078201,0.078201,0
0.1173,0.078201,0.078201,0
0.1173,0.087977,0.078201,0
0.12708,0.097752,0.097752,0
0.1173,0.10753,0.087977,0
0.10753,0.10753,0.068426,0
0.10753,0.12708,0.087977,0
0.10753,0.12708,0.078201,0
0.1173,0.1173,0.068426,0
0.10753,0.1173,0.068426,0
0.1173,0.12708,0.068426,0
0.10753,0.12708,0.058651,0
0.1173,0.1564,0.068426,0
0.1173,0.18573,0.068426,0
0.097752,0.16618,0.068426,0
0.1173,0.16618,0.078201,0
0.097752,0.16618,0.078201,0
0.087977,0.17595,0.068426,0
0.087977,0.17595,0.087977,0
0.078201,0.17595,0.078201,0
0.087977,0.17595,0.068426,0
0.087977,0.16618,0.068426,0
0.087977,0.1564,0.078201,0
0.068426,0.14663,0.078201,0
0.078201,0.14663,0.068426,0
0.078201,0.14663,0.068426,0
0.068426,0.16618,0.078201,0
0.058651,0.17595,0.078201,0
0.048876,0.16618,0.078201,0
0.058651,0.17595,0.068426,0
0.058651,0.1955,0.058651,0
0.068426,0.22483,0.068426,0
0.087977,0.22483,0.078201,0
0.097752,0.22483,0.087977,0
0.097752,0.2346,0.068426,0
0.097752,0.26393,0.068426,0
0.097752,0.29326,0.068426,0
0.10753,0.30303,0.068426,0
0.097752,0.31281,0.068426,0
0.087977,0.32258,0.068426,0
0.097752,0.33236,0.068426,0
0.087977,0.33236,0.078201,0
0.068426,0.33236,0.068426,0
0.058651,0.33236,0.078201,0
0.058651,0.31281,0.068426,0
0.048876,0.30303,0.078201,0
0.039101,0.28348,0.078201,0
0.048876,0.28348,0.068426,0
0.039101,0.2737,0.087977,0
0.039101,0.25415,0.078201,0
0.029326,0.2737,0.068426,0
0.029326,0.22483,0.078201,0
0.029326,0.21505,0.078201,0
0.029326,0.26393,0.078201,0
0.029326,0.26393,0.078201,0
0.01955,0.22483,0.078201,0
0.01955,0.2346,0.068426,0
0.01955,0.25415,0.068426,0
0.01955,0.078201,0.21505,0.068426
0.87977,0.91887,0.38123,0.36168
0.67449,0.71359,0.30303,0.28348
0.52786,0.57674,0.2737,0.21505
0.41056,0.46921,0.22483,0.16618
0.32258,0.39101,0.18573,0.12708
0.25415,0.32258,0.1564,0.097752
0.21505,0.26393,0.14663,0.078201
0.17595,0.22483,0.12708,0.058651
0.14663,0.1955,0.1173,0.048876
0.1173,0.16618,0.097752,0.029326
0.1173,0.1564,0.097752,0.029326
0.10753,0.14663,0.087977,0.01955
0.097752,0.12708,0.097752,0.01955
0.087977,0.1173,0.087977,0.0097752
0.078201,0.1173,0.078201,0.0097752
0.087977,0.097752,0.078201,0
0.097752,0.097752,0.078201,0
0.12708,0.097752,0.087977,0
0.13685,0.097752,0.078201,0.0097752
0.17595,0.087977,0.078201,0
0.1564,0.087977,0.078201,0
0.17595,0.087977,0.068426,0
0.16618,0.087977,0.078201,0
0.16618,0.10753,0.087977,0
0.17595,0.10753,0.078201,0
0.1564,0.10753,0.078201,0
0.2346,0.10753,0.068426,0
0.20528,0.1173,0.068426,0
0.20528,0.10753,0.078201,0
0.18573,0.1173,0.068426,0
0.16618,0.1173,0.087977,0
0.18573,0.10753,0.087977,0
0.18573,0.087977,0.078201,0
0.20528,0.087977,0.068426,0
0.18573,0.087977,0.087977,0
0.18573,0.1173,0.078201,0
0.1955,0.1173,0.068426,0
0.20528,0.1173,0.078201,0
0.21505,0.10753,0.068426,0
0.24438,0.097752,0.058651,0
0.24438,0.097752,0.068426,0
0.24438,0.097752,0.068426,0
0.22483,0.087977,0.068426,0
0.21505,0.078201,0.078201,0
0.21505,0.087977,0.087977,0
0.2346,0.087977,0.087977,0
0.2346,0.097752,0.087977,0
0.22483,0.10753,0.078201,0
0.2346,0.10753,0.068426,0
0.24438,0.1173,0.058651,0
0.2346,0.10753,0.068426,0
0.2346,0.097752,0.087977,0
0.22483,0.10753,0.068426,0
0.30303,0.10753,0.087977,0
0.35191,0.097752,0.087977,0
0.38123,0.097752,0.078201,0
0.34213,0.087977,0.078201,0
0.34213,0.097752,0.078201,0
0.32258,0.087977,0.068426,0
0.29326,0.097752,0.058651,0
0.2737,0.10753,0.068426,0
0.2346,0.087977,0.068426,0
0.2346,0.087977,0.068426,0
0.25415,0.087977,0.058651,0
0.28348,0.087977,0.058651,0
0.36168,0.078201,0.068426,0
0.42033,0.078201,0.068426,0
0.46921,0.097752,0.078201,0
0.53763,0.097752,0.068426,0
0.60606,0.097752,0.068426,0
0.54741,0.087977,0.068426,0
0.49853,0.097752,0.068426,0
0.46921,0.10753,0.068426,0
0.44966,0.1173,0.068426,0
0.39101,0.1173,0.068426,0
0.33236,0.10753,0.078201,0
0.31281,0.10753,0.068426,0
0.25415,0.10753,0.068426,0
0.20528,0.1173,0.078201,0
0.18573,0.1173,0.078201,0
0.1564,0.10753,0.1173,0
0.13685,0.10753,0.10753,0
0.1173,0.10753,0.097752,0
0.10753,0.1173,0.087977,0
0.10753,0.1173,0.097752,0
0.097752,0.13685,0.097752,0
0.087977,0.14663,0.078201,0
0.087977,0.14663,0.087977,0
0.10753,0.13685,0.10753,0
0.10753,0.14663,0.097752,0
0.097752,0.16618,0.10753,0
0.097752,0.20528,0.097752,0
0.10753,0.21505,0.097752,0
0.1173,0.20528,0.087977,0
0.1173,0.22483,0.087977,0
0.097752,0.21505,0.097752,0
0.1173,0.21505,0.087977,0
0.10753,0.1955,0.078201,0
0.10753,0.18573,0.078201,0
0.097752,0.20528,0.087977,0
0.097752,0.20528,0.078201,0
0.1173,0.20528,0.087977,0
0.1173,0.21505,0.097752,0
0.097752,0.20528,0.097752,0
0.097752,0.2346,0.097752,0
0.097752,0.22483,0.097752,0
0.087977,0.20528,0.097752,0
0.087977,0.2346,0.10753,0
0.087977,0.26393,0.10753,0
0.078201,0.28348,0.12708,0
0.078201,0.39101,0.1173,0
0.078201,0.39101,0.13685,0
0.097752,0.36168,0.1173,0
0.087977,0.35191,0.13685,0
0.097752,0.41056,0.13685,0
0.087977,0.47898,0.1564,0
0.087977,0.47898,0.14663,0
0.087977,0.41056,0.1564,0
0.087977,0.33236,0.1564,0
0.087977,0.29326,0.14663,0
0.10753,0.29326,0.17595,0
0.1173,0.30303,0.1564,0
0.13685,0.28348,0.16618,0
0.12708,0.24438,0.21505,0
0.12708,0.21505,0.22483,0
0.1173,0.1955,0.21505,0
0.1173,0.17595,0.20528,0
0.10753,0.1564,0.1955,0
0.10753,0.14663,0.17595,0
0.10753,0.13685,0.18573,0
0.10753,0.1173,0.17595,0
0.097752,0.097752,0.18573,0
0.078201,0.078201,0.1955,0
0.068426,0.068426,0.18573,0
0.078201,0.068426,0.16618,0
0.078201,0.058651,0.1955,0
0.078201,0.058651,0.1955,0
0.078201,0.058651,0.21505,0
0.068426,0.068426,0.1955,0
0.058651,0.078201,0.17595,0
0.039101,0.097752,0.1955,0
0.048876,0.097752,0.16618,0
0.048876,0.087977,0.17595,0
0.058651,0.078201,0.17595,0
0.058651,0.087977,0.24438,0
0.058651,0.087977,0.34213,0
0.039101,0.087977,0.32258,0
0.029326,0.10753,0.29326,0
0.01955,0.1173,0.31281,0
0.01955,0.1173,0.30303,0
0.01955,0.10753,0.28348,0
0.029326,0.10753,0.26393,0
0.039101,0.1173,0.25415,0
0.048876,0.13685,0.24438,0
0.048876,0.12708,0.2737,0
0.039101,0.12708,0.25415,0
0.058651,0.12708,0.25415,0
0.068426,0.1173,0.2737,0
0.078201,0.1173,0.2346,0
0.078201,0.12708,0.31281,0
0.068426,0.13685,0.31281,0
0.068426,0.1173,0.36168,0
0.058651,0.1173,0.30303,0
0.048876,0.1173,0.26393,0
0.039101,0.12708,0.2737,0
0.048876,0.12708,0.24438,0
0.078201,0.1173,0.24438,0
0.068426,0.1173,0.22483,0
0.058651,0.10753,0.30303,0
0.078201,0.097752,0.29326,0
0.078201,0.12708,0.30303,0
0.058651,0.12708,0.28348,0
0.048876,0.12708,0.2737,0
0.039101,0.10753,0.30303,0
0.048876,0.10753,0.28348,0
0.048876,0.10753,0.29326,0
0.048876,0.12708,0.2737,0.0097752
0.039101,0.1173,0.26393,0.01955
0.029326,0.10753,0.2346,0.01955
0.029326,0.10753,0.22483,0.039101
0.029326,0.1173,0.20528,0.048876
0.01955,0.10753,0.21505,0.048876
0.01955,0.097752,0.18573,0.097752
0.029326,0.097752,0.1564,0.10753
0.01955,0.097752,0.14663,0.14663
0.0097752,0.097752,0.14663,0.16618
0.0097752,0.078201,0.12708,0.16618
0.0097752,0.068426,0.1173,0.1564
0.0097752,0.068426,0.10753,0.1564
0.0097752,0.068426,0.10753,0.14663
0.0097752,0.068426,0.10753,0.12708
0.0097752,0.068426,0.10753,0.1173
0.0097752,0.068426,0.097752,0.12708
0.0097752,0.068426,0.10753,0.1173
0,0.078201,0.097752,0.1173
0,0.078201,0.087977,0.13685
0.0097752,0.068426,0.087977,0.16618
0,0.058651,0.10753,0.16618
0,0.058651,0.097752,0.1955
0,0.068426,0.097752,0.2346
0.0097752,0.068426,0.10753,0.25415
0.0097752,0.048876,0.10753,0.2346
0,0.078201,0.10753,0.24438
0.0097752,0.068426,0.1173,0.32258
0.0097752,0.078201,0.13685,0.32258
0.0097752,0.068426,0.12708,0.30303
0,0.078201,0.12708,0.28348
0,0.068426,0.13685,0.25415
0,0.058651,0.12708,0.30303
0,0.068426,0.13685,0.29326
0,0.058651,0.14663,0.29326
0,0.058651,0.12708,0.30303
0,0.058651,0.12708,0.33236
0.0097752,0.058651,0.17595,0.41056
0.0097752,0.078201,0.1564,0.49853
0.0097752,0.068426,0.1564,0.46921
0.0097752,0.058651,0.16618,0.47898
0.0097752,0.058651,0.14663,0.54741
0.0097752,0.068426,0.1564,0.50831
0,0.068426,0.16618,0.45943
0,0.058651,0.14663,0.45943
0,0.058651,0.14663,0.41056
0,0.058651,0.13685,0.41056
0.0097752,0.058651,0.13685,0.42033
0,0.048876,0.13685,0.38123
0,0.058651,0.12708,0.36168
0,0.048876,0.1173,0.38123
0.0097752,0.048876,0.1173,0.38123
0.0097752,0.058651,0.12708,0.40078
0,0.048876,0.13685,0.42033
0,0.058651,0.13685,0.45943
0,0.058651,0.14663,0.42033
0.0097752,0.058651,0.12708,0.40078
0,0.058651,0.1173,0.41056
0,0.048876,0.12708,0.37146
0,0.048876,0.12708,0.38123
0.0097752,0.048876,0.1173,0.37146
0,0.048876,0.1173,0.37146
0,0.058651,0.1173,0.34213
0,0.058651,0.10753,0.35191
0,0.058651,0.12708,0.34213
0,0.058651,0.13685,0.34213
0,0.058651,0.12708,0.33236
0,0.058651,0.13685,0.29326
0,0.058651,0.1173,0.32258
0.0097752,0.048876,0.12708,0.28348
0,0.058651,0.13685,0.30303
0,0.058651,0.13685,0.28348
0,0.068426,0.13685,0.29326
0,0.058651,0.1564,0.2737
0,0.048876,0.1564,0.21505
0,0.048876,0.1564,0.17595
0,0.048876,0.14663,0.16618
0,0.048876,0.14663,0.14663
0,0.048876,0.12708,0.12708
0,0.039101,0.13685,0.1173
0,0.039101,0.12708,0.1173
0,0.039101,0.1173,0.1173
0,0.058651,0.097752,0.097752
0,0.048876,0.10753,0.097752
0,0.048876,0.1173,0.097752
0,0.058651,0.10753,0.087977
0,0.058651,0.1173,0.078201
0,0.048876,0.14663,0.087977
0,0.048876,0.13685,0.097752
0,0.048876,0.12708,0.097752
0,0.048876,0.14663,0.087977
0,0.048876,0.16618,0.078201
0,0.039101,0.1564,0.087977
0,0.048876,0.13685,0.087977
0,0.048876,0.14663,0.097752
0,0.048876,0.13685,0.097752
0,0.048876,0.1173,0.10753
0,0.048876,0.12708,0.097752
0,0.048876,0.1173,0.12708
0,0.048876,0.10753,0.12708
0,0.048876,0.097752,0.12708
0,0.048876,0.087977,0.1173
0,0.039101,0.097752,0.097752
0,0.039101,0.1173,0.13685
0,0.048876,0.10753,0.12708
0,0.048876,0.10753,0.1173
0,0.039101,0.10753,0.1173
0,0.048876,0.087977,0.10753
0,0.048876,0.087977,0.10753
0,0.058651,0.087977,0.097752
0,0.048876,0.078201,0.10753
0,0.048876,0.068426,0.10753
0,0.058651,0.097752,0.097752
0,0.048876,0.097752,0.097752
0,0.048876,0.10753,0.097752
0,0.048876,0.097752,0.097752
0,0.039101,0.087977,0.087977
0,0.039101,0.097752,0.078201
0,0.039101,0.097752,0.087977
0,0.048876,0.097752,0.1173
0,0.048876,0.097752,0.10753
0,0.048876,0.078201,0.1173
0,0.039101,0.087977,0.1173
0,0.048876,0.087977,0.1173
0,0.048876,0.087977,0.1173
0,0.048876,0.078201,0.10753
0,0.048876,0.068426,0.097752
0,0.048876,0.068426,0.087977
0,0.048876,0.078201,0.087977
0,0.048876,0.068426,0.097752
0,0.048876,0.068426,0.097752
0,0.039101,0.068426,0.068426
0,0.039101,0.068426,0.058651
0,0.029326,0.078201,0.058651
0,0.039101,0.068426,0.058651
0,0.048876,0.058651,0.048876
0,0.039101,0.068426,0.048876
0,0.039101,0.078201,0.048876
0,0.029326,0.068426,0.048876
0,0.039101,0.087977,0.048876
0,0.039101,0.097752,0.048876
0,0.039101,0.078201,0.058651
0,0.039101,0.068426,0.048876
0,0.039101,0.068426,0.048876
0.0097752,0.039101,0.068426,0.058651
0.0097752,0.048876,0.068426,0.048876
0.01955,0.039101,0.068426,0.048876
0.029326,0.048876,0.087977,0.039101
0.039101,0.048876,0.097752,0.039101
0.029326,0.048876,0.097752,0.039101
0.048876,0.048876,0.1173,0.029326
0.039101,0.058651,0.097752,0.01955
0.039101,0.068426,0.097752,0.01955
0.048876,0.068426,0.097752,0.01955
0.068426,0.078201,0.097752,0.01955
0.068426,0.097752,0.097752,0.01955
0.097752,0.13685,0.087977,0.01955
0.14663,0.1173,0.097752,0.0097752
0.16618,0.097752,0.087977,0.0097752
0.22483,0.1173,0.097752,0.01955
0.18573,0.1173,0.097752,0.0097752
0.21505,0.12708,0.087977,0.0097752
0.2346,0.1173,0.087977,0.0097752
0.1955,0.10753,0.097752,0.0097752
0.17595,0.1173,0.097752,0
0.17595,0.12708,0.087977,0
0.1564,0.13685,0.087977,0
0.17595,0.14663,0.097752,0
0.18573,0.14663,0.097752,0
0.16618,0.14663,0.097752,0
0.16618,0.14663,0.087977,0
0.2346,0.16618,0.087977,0
0.31281,0.1564,0.087977,0
0.41056,0.16618,0.078201,0
0.36168,0.14663,0.078201,0
0.43011,0.14663,0.078201,0
0.39101,0.13685,0.068426,0
0.42033,0.13685,0.068426,0
0.43988,0.13685,0.058651,0
0.41056,0.13685,0.048876,0
0.38123,0.13685,0.068426,0
0.34213,0.13685,0.068426,0
0.35191,0.12708,0.068426,0
0.36168,0.12708,0.087977,0
0.37146,0.12708,0.097752,0
0.43988,0.14663,0.1173,0
0.45943,0.14663,0.10753,0
0.42033,0.1564,0.087977,0
0.37146,0.1564,0.097752,0
0.36168,0.18573,0.087977,0
0.40078,0.17595,0.078201,0
0.39101,0.1955,0.078201,0
0.38123,0.1955,0.068426,0
0.38123,0.18573,0.068426,0
0.35191,0.1955,0.087977,0
0.38123,0.21505,0.078201,0
0.33236,0.20528,0.078201,0
0.37146,0.20528,0.087977,0
0.36168,0.17595,0.087977,0
0.40078,0.18573,0.087977,0
0.41056,0.1955,0.087977,0
0.38123,0.17595,0.087977,0
0.33236,0.20528,0.087977,0
0.32258,0.2346,0.087977,0
0.2737,0.22483,0.087977,0
0.2737,0.21505,0.078201,0
0.2737,0.24438,0.10753,0
0.30303,0.2346,0.097752,0
0.32258,0.24438,0.087977,0
0.30303,0.2346,0.087977,0
0.36168,0.2346,0.087977,0
0.42033,0.2346,0.078201,0
0.38123,0.2346,0.078201,0
0.38123,0.24438,0.078201,0
0.36168,0.26393,0.078201,0
0.33236,0.26393,0.078201,0
0.33236,0.2737,0.087977,0
0.34213,0.2737,0.078201,0
0.31281,0.29326,0.078201,0
0.30303,0.36168,0.078201,0
0.2737,0.37146,0.078201,0
0.21505,0.37146,0.087977,0
0.17595,0.35191,0.087977,0
0.14663,0.32258,0.087977,0
0.1173,0.29326,0.087977,0
0.097752,0.28348,0.097752,0
0.097752,0.24438,0.087977,0
0.087977,0.20528,0.078201,0
0.078201,0.1955,0.078201,0
0.068426,0.16618,0.068426,0
0.058651,0.13685,0.068426,0
0.068426,0.12708,0.058651,0
0.068426,0.12708,0.078201,0
0.068426,0.10753,0.087977,0
0.068426,0.097752,0.1173,0
0.068426,0.087977,0.14663,0
0.068426,0.087977,0.16618,0
0.087977,0.078201,0.16618,0
0.097752,0.058651,0.14663,0
0.097752,0.058651,0.14663,0
0.097752,0.058651,0.14663,0
0.10753,0.058651,0.12708,0
0.10753,0.068426,0.12708,0
0.10753,0.058651,0.12708,0
0.12708,0.068426,0.12708,0
0.1173,0.068426,0.1173,0
0.12708,0.078201,0.1173,0
0.13685,0.087977,0.18573,0
0.16618,0.078201,0.17595,0
0.16618,0.087977,0.1955,0
0.1564,0.087977,0.18573,0
0.14663,0.078201,0.18573,0
0.12708,0.097752,0.21505,0
0.1173,0.097752,0.20528,0
0.1173,0.097752,0.22483,0
0.1173,0.10753,0.25415,0
0.097752,0.097752,0.25415,0
0.097752,0.087977,0.24438,0
0.12708,0.097752,0.2346,0
0.10753,0.087977,0.24438,0
0.087977,0.078201,0.30303,0
0.087977,0.078201,0.26393,0
0.097752,0.078201,0.2346,0
0.087977,0.068426,0.22483,0
0.078201,0.078201,0.24438,0
0.078201,0.068426,0.22483,0
0.097752,0.068426,0.22483,0
0.097752,0.068426,0.20528,0
0.087977,0.078201,0.20528,0
0.097752,0.087977,0.21505,0
0.097752,0.1173,0.20528,0
0.097752,0.12708,0.18573,0
0.087977,0.10753,0.20528,0
0.087977,0.097752,0.2346,0
0.10753,0.12708,0.21505,0
0.1173,0.14663,0.20528,0
0.097752,0.14663,0.24438,0
0.097752,0.14663,0.22483,0
0.087977,0.13685,0.24438,0
0.078201,0.12708,0.2346,0
0.068426,0.12708,0.22483,0
0.058651,0.13685,0.21505,0
0.048876,0.12708,0.1955,0
0.058651,0.10753,0.22483,0
0.058651,0.10753,0.22483,0
0.048876,0.097752,0.22483,0
0.039101,0.087977,0.22483,0
0.029326,0.087977,0.2346,0
0.01955,0.078201,0.24438,0
0.01955,0.087977,0.24438,0
0.01955,0.068426,0.21505,0
0.01955,0.078201,0.24438,0
0.01955,0.078201,0.25415,0
0.01955,0.078201,0.2346,0
0.0097752,0.078201,0.29326,0
0.0097752,0.078201,0.28348,0
0.01955,0.078201,0.29326,0
0.01955,0.078201,0.30303,0
0.01955,0.078201,0.34213,0
0.01955,0.068426,0.32258,0
0.0097752,0.068426,0.32258,0
0.0097752,0.058651,0.28348,0
0.068426,0.068426,0.26393,0
0.058651,0.068426,0.2346,0
0.058651,0.068426,0.21505,0
0.058651,0.068426,0.20528,0
0.068426,0.068426,0.17595,0
0.058651,0.068426,0.1564,0
0.058651,0.058651,0.14663,0
0.048876,0.058651,0.13685,0
0.039101,0.058651,0.12708,0
0.029326,0.058651,0.12708,0
0.029326,0.058651,0.1173,0
0.01955,0.068426,0.10753,0
0.01955,0.058651,0.10753,0
0.029326,0.068426,0.10753,0
0.029326,0.048876,0.097752,0
0.01955,0.058651,0.10753,0
0.01955,0.058651,0.097752,0
0.01955,0.058651,0.087977,0
0.01955,0.068426,0.097752,0
0.0097752,0.048876,0.097752,0
0.0097752,0.048876,0.097752,0
0,0.048876,0.097752,0
0,0.048876,0.087977,0
0.0097752,0.058651,0.078201,0
0.0097752,0.058651,0.087977,0
0.0097752,0.058651,0.097752,0
0,0.058651,0.097752,0
0,0.058651,0.097752,0
0,0.058651,0.087977,0
0,0.058651,0.087977,0
0,0.058651,0.078201,0
0,0.048876,0.087977,0
0,0.048876,0.087977,0
0,0.048876,0.087977,0
0,0.048876,0.097752,0
0,0.058651,0.097752,0.0097752
0.0097752,0.058651,0.087977,0.0097752
0.0097752,0.058651,0.097752,0.0097752
0.01955,0.048876,0.097752,0.0097752
0.039101,0.058651,0.10753,0.01955
0.039101,0.048876,0.12708,0.01955
0.039101,0.048876,0.14663,0.01955
0.029326,0.058651,0.14663,0.01955
0.029326,0.048876,0.13685,0.01955
0.01955,0.048876,0.1564,0.01955
0.01955,0.048876,0.24438,0.01955
0.01955,0.048876,0.25415,0.029326
0.01955,0.048876,0.24438,0.048876
0.0097752,0.048876,0.22483,0.068426
0.0097752,0.039101,0.18573,0.078201
0,0.048876,0.1955,0.078201
0,0.048876,0.21505,0.097752
0.0097752,0.048876,0.1955,0.087977
0.0097752,0.039101,0.18573,0.078201
0.01955,0.048876,0.21505,0.087977
0.0097752,0.058651,0.20528,0.087977
0.01955,0.058651,0.18573,0.10753
0.01955,0.058651,0.17595,0.1173
0.0097752,0.048876,0.17595,0.10753
0.01955,0.048876,0.1955,0.1173
0.01955,0.048876,0.17595,0.1173
0.0097752,0.048876,0.17595,0.1173
0.01955,0.048876,0.18573,0.12708
0.0097752,0.048876,0.1955,0.10753
0.01955,0.048876,0.20528,0.12708
0.01955,0.048876,0.22483,0.12708
0.0097752,0.048876,0.21505,0.1564
0.0097752,0.048876,0.21505,0.18573
0,0.058651,0.18573,0.24438
0,0.048876,0.16618,0.26393
0,0.048876,0.14663,0.26393
0,0.048876,0.1564,0.30303
0,0.058651,0.1564,0.31281
0,0.058651,0.17595,0.33236
0,0.058651,0.1564,0.32258
0,0.058651,0.1564,0.31281
0,0.068426,0.1564,0.30303
0,0.058651,0.14663,0.26393
0,0.058651,0.13685,0.2737
0,0.058651,0.13685,0.34213
0,0.048876,0.13685,0.32258
0,0.048876,0.1173,0.30303
0,0.058651,0.1173,0.29326
0,0.058651,0.1173,0.29326
0,0.048876,0.10753,0.29326
0,0.048876,0.097752,0.31281
0,0.048876,0.087977,0.34213
0,0.048876,0.1173,0.33236
0,0.058651,0.10753,0.32258
0,0.058651,0.1173,0.32258
0,0.048876,0.10753,0.33236
0,0.048876,0.12708,0.32258
0,0.048876,0.1173,0.35191
0,0.048876,0.1173,0.32258
0,0.048876,0.10753,0.34213
0,0.058651,0.1173,0.40078
0,0.068426,0.10753,0.39101
0,0.048876,0.097752,0.43988
0,0.058651,0.10753,0.42033
0,0.048876,0.10753,0.37146
0,0.048876,0.1173,0.36168
0,0.058651,0.10753,0.32258
0,0.048876,0.10753,0.30303
0,0.048876,0.10753,0.30303
0,0.048876,0.10753,0.29326
0.0097752,0.048876,0.12708,0.26393
0.0097752,0.048876,0.12708,0.2346
0,0.048876,0.12708,0.22483
0,0.058651,0.12708,0.21505
0,0.048876,0.10753,0.2346
0.0097752,0.048876,0.097752,0.2346
0,0.039101,0.097752,0.22483
0,0.039101,0.097752,0.21505
0.0097752,0.039101,0.097752,0.21505
0.0097752,0.048876,0.097752,0.1955
0.0097752,0.048876,0.12708,0.1564
0.0097752,0.039101,0.1173,0.14663
0.0097752,0.048876,0.10753,0.13685
0.0097752,0.048876,0.13685,0.13685
0.0097752,0.048876,0.13685,0.1173
0.0097752,0.048876,0.12708,0.097752
0.0097752,0.048876,0.1173,0.078201
0.0097752,0.048876,0.13685,0.078201
0.0097752,0.048876,0.12708,0.078201
0.029326,0.048876,0.1173,0.068426
0.01955,0.048876,0.12708,0.058651
0.029326,0.039101,0.12708,0.058651
0.039101,0.039101,0.12708,0.068426
0.029326,0.039101,0.13685,0.068426
0.01955,0.039101,0.13685,0.068426
0.01955,0.048876,0.12708,0.078201
0.0097752,0.039101,0.1173,0.087977
0.01955,0.039101,0.1173,0.087977
0.0097752,0.039101,0.12708,0.087977
0.0097752,0.039101,0.1173,0.1173
0.0097752,0.039101,0.10753,0.12708
0,0.039101,0.087977,0.1173
0,0.029326,0.097752,0.1173
0,0.039101,0.097752,0.12708
0,0.048876,0.10753,0.14663
0,0.048876,0.10753,0.1564
0,0.048876,0.097752,0.1564
0,0.048876,0.10753,0.1564
0,0.058651,0.10753,0.1564
0,0.068426,0.097752,0.13685
0,0.058651,0.078201,0.1173
0,0.068426,0.087977,0.1173
0.0097752,0.068426,0.087977,0.12708
0.01955,0.068426,0.087977,0.1173
0.01955,0.078201,0.078201,0.10753
0.029326,0.087977,0.087977,0.097752
0.029326,0.078201,0.10753,0.087977
0.029326,0.078201,0.10753,0.078201
0.039101,0.068426,0.097752,0.078201
0.048876,0.078201,0.087977,0.068426
0.048876,0.078201,0.087977,0.068426
0.058651,0.087977,0.087977,0.078201
0.078201,0.078201,0.10753,0.087977
0.068426,0.078201,0.097752,0.087977
0.068426,0.097752,0.087977,0.078201
0.068426,0.087977,0.087977,0.087977
0.058651,0.097752,0.097752,0.078201
0.078201,0.087977,0.097752,0.078201
0.10753,0.087977,0.087977,0.087977
0.097752,0.097752,0.097752,0.078201
0.14663,0.097752,0.087977,0.078201
0.18573,0.097752,0.078201,0.078201
0.21505,0.087977,0.10753,0.078201
0.22483,0.087977,0.1173,0.097752
0.21505,0.087977,0.097752,0.097752
0.2346,0.10753,0.087977,0.087977
0.22483,0.1173,0.087977,0.078201
0.21505,0.12708,0.087977,0.087977
0.21505,0.13685,0.078201,0.078201
0.18573,0.12708,0.087977,0.058651
0.2346,0.1173,0.087977,0.078201
0.30303,0.1173,0.097752,0.087977
0.31281,0.13685,0.10753,0.087977
0.28348,0.12708,0.097752,0.097752
0.25415,0.14663,0.097752,0.087977
0.24438,0.12708,0.097752,0.078201
0.25415,0.13685,0.087977,0.078201
0.24438,0.12708,0.078201,0.087977
0.24438,0.12708,0.078201,0.078201
0.26393,0.13685,0.078201,0.058651
0.24438,0.16618,0.078201,0.058651
0.2346,0.16618,0.068426,0.068426
0.22483,0.16618,0.068426,0.058651
0.22483,0.18573,0.087977,0.068426
0.24438,0.18573,0.078201,0.068426
0.35191,0.16618,0.087977,0.058651
0.43988,0.20528,0.087977,0.048876
0.42033,0.20528,0.078201,0.058651
0.38123,0.18573,0.068426,0.048876
0.39101,0.17595,0.078201,0.039101
0.43011,0.16618,0.068426,0.039101
0.41056,0.1564,0.078201,0.029326
0.44966,0.16618,0.068426,0.039101
0.44966,0.18573,0.068426,0.029326
0.55718,0.17595,0.068426,0.01955
0.57674,0.18573,0.097752,0.01955
0.54741,0.1955,0.10753,0.01955
0.47898,0.1955,0.097752,0.01955
0.38123,0.22483,0.097752,0.0097752
0.36168,0.21505,0.087977,0.0097752
0.34213,0.1955,0.097752,0.0097752
0.31281,0.21505,0.097752,0
0.31281,0.21505,0.078201,0.0097752
0.31281,0.22483,0.078201,0
0.32258,0.21505,0.068426,0.0097752
0.30303,0.1955,0.078201,0.0097752
0.29326,0.1955,0.078201,0.0097752
0.28348,0.21505,0.068426,0
0.30303,0.22483,0.068426,0
0.30303,0.26393,0.068426,0.0097752
0.2737,0.2737,0.087977,0.0097752
0.22483,0.33236,0.097752,0
0.18573,0.44966,0.087977,0
0.17595,0.58651,0.078201,0
0.14663,0.68426,0.087977,0
0.14663,0.60606,0.087977,0
0.12708,0.52786,0.078201,0
0.1173,0.46921,0.078201,0
0.10753,0.43011,0.087977,0
0.097752,0.43988,0.078201,0
0.087977,0.42033,0.087977,0
0.078201,0.38123,0.078201,0
0.078201,0.35191,0.078201,0
0.078201,0.31281,0.078201,0
0.078201,0.28348,0.068426,0
0.068426,0.28348,0.068426,0
0.078201,0.25415,0.087977,0
0.068426,0.21505,0.078201,0
0.068426,0.21505,0.078201,0
0.078201,0.1955,0.087977,0
0.078201,0.17595,0.087977,0
0.078201,0.14663,0.087977,0
0.078201,0.1564,0.087977,0
0.087977,0.14663,0.087977,0
0.087977,0.13685,0.087977,0
0.097752,0.12708,0.087977,0
0.10753,0.1173,0.078201,0
0.10753,0.1564,0.078201,0
0.097752,0.1564,0.087977,0
0.1173,0.1173,0.087977,0
0.1173,0.10753,0.087977,0
0.1173,0.10753,0.078201,0
0.10753,0.10753,0.078201,0
0.12708,0.10753,0.078201,0
0.16618,0.10753,0.068426,0
0.18573,0.10753,0.068426,0
0.1564,0.097752,0.068426,0
0.1564,0.087977,0.058651,0
0.1564,0.087977,0.078201,0
0.13685,0.087977,0.087977,0
0.12708,0.087977,0.087977,0
0.12708,0.087977,0.087977,0
0.12708,0.087977,0.087977,0
0.1173,0.078201,0.097752,0
0.10753,0.087977,0.1173,0
0.10753,0.087977,0.12708,0
0.10753,0.087977,0.1173,0
0.10753,0.10753,0.12708,0
0.097752,0.10753,0.1173,0
0.097752,0.10753,0.14663,0
0.1173,0.10753,0.1564,0
0.1173,0.097752,0.1564,0
0.1173,0.10753,0.17595,0
0.10753,0.10753,0.1564,0
0.1173,0.1173,0.17595,0
0.1173,0.12708,0.21505,0
0.097752,0.12708,0.25415,0
0.087977,0.10753,0.28348,0
0.10753,0.1173,0.2737,0
0.10753,0.1173,0.26393,0
0.097752,0.1173,0.22483,0
0.087977,0.1173,0.22483,0
0.087977,0.10753,0.20528,0
0.097752,0.10753,0.20528,0
0.078201,0.10753,0.20528,0
0.068426,0.097752,0.1955,0
0.078201,0.097752,0.1955,0
0.078201,0.097752,0.1955,0
0.068426,0.078201,0.18573,0
0.048876,0.078201,0.20528,0
0.039101,0.087977,0.1955,0
0.039101,0.097752,0.18573,0
0.039101,0.087977,0.20528,0
0.048876,0.087977,0.17595,0
0.039101,0.087977,0.17595,0
0.039101,0.087977,0.18573,0
0.029326,0.087977,0.17595,0
0.029326,0.087977,0.1955,0
0.01955,0.10753,0.1955,0
0.01955,0.097752,0.21505,0
0.0097752,0.10753,0.24438,0
0.0097752,0.087977,0.22483,0
0.0097752,0.10753,0.25415,0
0,0.1173,0.29326,0
0,0.10753,0.25415,0
0,0.097752,0.26393,0
0,0.10753,0.2346,0
0,0.097752,0.21505,0
0,0.097752,0.1955,0
0,0.10753,0.17595,0
0,0.10753,0.16618,0
0,0.097752,0.1564,0
0.0097752,0.087977,0.1564,0
0,0.087977,0.16618,0
0.0097752,0.097752,0.18573,0
0.0097752,0.097752,0.17595,0
0.0097752,0.10753,0.17595,0
0.01955,0.097752,0.21505,0
0.01955,0.097752,0.24438,0
0.01955,0.097752,0.26393,0
0.01955,0.097752,0.2737,0
0.01955,0.078201,0.28348,0
0.029326,0.087977,0.24438,0
0.01955,0.078201,0.24438,0
0.01955,0.087977,0.24438,0
0.01955,0.097752,0.22483,0
0.01955,0.078201,0.1955,0
0.01955,0.068426,0.17595,0
0.0097752,0.068426,0.1564,0
0.0097752,0.068426,0.1564,0
0.0097752,0.087977,0.14663,0
0.0097752,0.097752,0.12708,0
0.0097752,0.097752,0.10753,0
0,0.10753,0.097752,0
0,0.097752,0.087977,0
0,0.087977,0.10753,0
0,0.078201,0.097752,0
0.0097752,0.078201,0.087977,0
0.0097752,0.087977,0.078201,0
0.01955,0.087977,0.097752,0
0.01955,0.087977,0.078201,0
0.029326,0.078201,0.078201,0
0.01955,0.078201,0.087977,0
0.01955,0.068426,0.087977,0
0.01955,0.078201,0.097752,0
0.01955,0.068426,0.10753,0
0.0097752,0.078201,0.10753,0
0.0097752,0.078201,0.14663,0
0.0097752,0.068426,0.14663,0
0,0.078201,0.14663,0
0.0097752,0.078201,0.1564,0
0.01955,0.078201,0.16618,0
0.0097752,0.078201,0.22483,0
0.0097752,0.068426,0.20528,0
0.0097752,0.078201,0.20528,0
0.0097752,0.068426,0.1955,0
0.0097752,0.068426,0.18573,0
0,0.068426,0.21505,0
0.0097752,0.068426,0.21505,0
0,0.087977,0.2346,0
0.0097752,0.087977,0.21505,0
0.0097752,0.078201,0.22483,0
0.0097752,0.078201,0.24438,0
0.0097752,0.078201,0.2737,0
0.0097752,0.068426,0.24438,0
0.0097752,0.068426,0.2737,0
0.0097752,0.068426,0.24438,0
0,0.068426,0.2346,0
0.0097752,0.078201,0.20528,0
0.0097752,0.068426,0.21505,0
0.0097752,0.068426,0.20528,0
0.0097752,0.068426,0.20528,0
0.01955,0.058651,0.17595,0
0.0097752,0.058651,0.18573,0.0097752
0.0097752,0.048876,0.18573,0.0097752
0.0097752,0.048876,0.18573,0.0097752
0,0.048876,0.18573,0.01955
0,0.048876,0.17595,0.029326
0,0.058651,0.1564,0.039101
0,0.048876,0.1564,0.048876
0.0097752,0.058651,0.17595,0.078201
0,0.058651,0.1955,0.087977
0,0.048876,0.18573,0.078201
0,0.058651,0.18573,0.068426
0.0097752,0.058651,0.17595,0.058651
0.0097752,0.058651,0.16618,0.048876
0.0097752,0.058651,0.16618,0.068426
0.0097752,0.048876,0.14663,0.058651
0.0097752,0.058651,0.13685,0.058651
0,0.048876,0.1564,0.078201
0,0.058651,0.14663,0.068426
0,0.058651,0.14663,0.078201
0,0.048876,0.13685,0.078201
0,0.068426,0.13685,0.1173
0,0.058651,0.12708,0.14663
0.0097752,0.048876,0.1173,0.16618
0,0.058651,0.1173,0.21505
0,0.058651,0.1173,0.2346
0,0.058651,0.12708,0.21505
0,0.068426,0.12708,0.22483
0,0.058651,0.1173,0.28348
0.0097752,0.058651,0.10753,0.28348
0.0097752,0.058651,0.12708,0.2737
0.0097752,0.068426,0.1173,0.30303
0.01955,0.068426,0.10753,0.29326
0.039101,0.078201,0.10753,0.26393
0.039101,0.068426,0.10753,0.24438
0.029326,0.068426,0.097752,0.2737
0.01955,0.078201,0.087977,0.28348
0.029326,0.068426,0.097752,0.24438
0.029326,0.078201,0.1173,0.25415
0.039101,0.078201,0.10753,0.24438
0.048876,0.078201,0.10753,0.28348
0.048876,0.087977,0.10753,0.26393
0.058651,0.068426,0.087977,0.31281
0.068426,0.078201,0.10753,0.30303
0.058651,0.078201,0.087977,0.31281
0.048876,0.078201,0.078201,0.29326
0.029326,0.068426,0.097752,0.31281
0.029326,0.058651,0.087977,0.30303
0.01955,0.068426,0.097752,0.28348
0.01955,0.058651,0.10753,0.28348
0.01955,0.068426,0.097752,0.28348
0.01955,0.068426,0.097752,0.24438
0.01955,0.078201,0.097752,0.26393
0.0097752,0.068426,0.10753,0.26393
0.0097752,0.068426,0.097752,0.26393
0,0.078201,0.10753,0.25415
0,0.058651,0.097752,0.22483
0.0097752,0.068426,0.097752,0.28348
0,0.068426,0.087977,0.28348
0,0.078201,0.078201,0.25415
0,0.078201,0.087977,0.25415
0.0097752,0.078201,0.097752,0.22483
0.0097752,0.087977,0.10753,0.1955
0,0.087977,0.097752,0.1955
0,0.087977,0.087977,0.18573
0,0.097752,0.097752,0.16618
0,0.087977,0.087977,0.1564
0,0.087977,0.078201,0.16618
0.0097752,0.087977,0.087977,0.17595
0.0097752,0.087977,0.078201,0.17595
0.0097752,0.087977,0.068426,0.18573
0.0097752,0.078201,0.068426,0.20528
0.029326,0.068426,0.078201,0.21505
0.029326,0.068426,0.068426,0.21505
0.029326,0.068426,0.087977,0.1955
0.029326,0.068426,0.087977,0.16618
0.029326,0.078201,0.078201,0.14663
0.029326,0.068426,0.078201,0.1173
0.039101,0.068426,0.068426,0.1173
0.048876,0.068426,0.068426,0.087977
0.078201,0.058651,0.068426,0.078201
0.078201,0.058651,0.058651,0.058651
0.068426,0.058651,0.068426,0.078201
0.068426,0.048876,0.1173,0.078201
0.078201,0.058651,0.12708,0.078201
0.087977,0.058651,0.1173,0.078201
0.10753,0.058651,0.10753,0.087977
0.12708,0.058651,0.097752,0.087977
0.10753,0.058651,0.087977,0.087977
0.1173,0.058651,0.087977,0.078201
0.12708,0.058651,0.097752,0.087977
0.12708,0.058651,0.097752,0.10753
0.13685,0.058651,0.097752,0.10753
0.14663,0.058651,0.087977,0.1173
0.1564,0.058651,0.087977,0.10753
0.14663,0.058651,0.087977,0.10753
0.17595,0.058651,0.087977,0.13685
0.14663,0.048876,0.078201,0.10753
0.13685,0.058651,0.068426,0.1173
0.14663,0.058651,0.068426,0.10753
0.14663,0.058651,0.087977,0.10753
0.1564,0.068426,0.078201,0.10753
0.1564,0.068426,0.087977,0.097752
0.21505,0.068426,0.087977,0.087977
0.2737,0.068426,0.078201,0.087977
0.28348,0.078201,0.068426,0.087977
0.29326,0.078201,0.087977,0.078201
0.28348,0.078201,0.087977,0.068426
0.28348,0.078201,0.087977,0.078201
0.26393,0.078201,0.078201,0.078201
0.25415,0.087977,0.078201,0.087977
0.24438,0.087977,0.068426,0.087977
0.2737,0.097752,0.078201,0.097752
0.31281,0.097752,0.087977,0.097752
0.31281,0.097752,0.078201,0.087977
0.29326,0.097752,0.078201,0.068426
0.29326,0.10753,0.087977,0.068426
0.32258,0.097752,0.087977,0.068426
0.30303,0.087977,0.087977,0.078201
0.33236,0.097752,0.087977,0.078201
0.31281,0.097752,0.087977,0.087977
0.32258,0.10753,0.087977,0.087977
0.2737,0.097752,0.078201,0.078201
0.2346,0.10753,0.078201,0.078201
0.1955,0.097752,0.078201,0.078201
0.17595,0.097752,0.078201,0.097752
0.16618,0.10753,0.087977,0.10753
0.20528,0.1173,0.068426,0.097752
0.20528,0.1173,0.068426,0.097752
0.17595,0.1173,0.078201,0.087977
0.21505,0.1173,0.078201,0.078201
0.21505,0.12708,0.087977,0.068426
0.20528,0.12708,0.097752,0.058651
0.21505,0.1564,0.087977,0.058651
0.1955,0.13685,0.078201,0.048876
0.17595,0.13685,0.068426,0.048876
0.1564,0.12708,0.068426,0.048876
0.14663,0.14663,0.068426,0.058651
0.12708,0.14663,0.068426,0.058651
0.10753,0.14663,0.068426,0.048876
0.097752,0.14663,0.068426,0.068426
0.087977,0.16618,0.068426,0.078201
0.078201,0.1564,0.068426,0.068426
0.068426,0.16618,0.097752,0.058651
0.068426,0.1564,0.097752,0.058651
0.068426,0.16618,0.1173,0.048876
0.058651,0.1955,0.10753,0.048876
0.048876,0.18573,0.10753,0.039101
0.039101,0.17595,0.10753,0.039101
0.039101,0.1955,0.10753,0.039101
0.039101,0.21505,0.097752,0.029326
0.039101,0.20528,0.097752,0.01955
0.048876,0.20528,0.097752,0.01955
0.058651,0.1955,0.087977,0.0097752
2.8543,0.95797,1.3685,1.5738
2.7175,0.79179,1.1535,2.219
2.3167,0.65494,1.0068,2.522
2.1212,0.54741,0.84066,2.6491
1.8475,0.44966,0.73314,2.5122
1.7009,0.39101,0.64516,2.0626
1.5543,0.34213,0.54741,1.7107
1.4663,0.30303,0.51808,1.4272
1.4761,0.26393,0.43011,1.1828
1.4272,0.2346,0.40078,0.97752
1.3392,0.21505,0.43011,0.81134
1.2317,0.20528,0.42033,0.66471
1.0655,0.17595,0.43988,0.55718
0.93842,0.17595,0.40078,0.46921
0.80156,0.16618,0.40078,0.39101
0.69404,0.17595,0.38123,0.32258
0.62561,0.17595,0.34213,0.28348
0.54741,0.16618,0.36168,0.25415
0.57674,0.16618,0.35191,0.22483
0.51808,0.18573,0.35191,0.20528
0.53763,0.17595,0.34213,0.18573
