0.51808,0.59629,0.29326,1.4663
0.95797,1.8475,2.9032,2.1896
0.75269,1.4858,2.3265,2.4829
0.60606,1.1828,1.8671,2.5904
0.47898,0.95797,1.5347,2.61
0.38123,0.76246,1.2414,2.3656
0.31281,0.60606,1.0264,1.9453
0.25415,0.45943,0.85044,1.6031
0.20528,0.40078,0.69404,1.3196
0.16618,0.35191,0.57674,1.0948
0.13685,0.29326,0.48876,0.90909
0.10753,0.22483,0.45943,0.76246
0.087977,0.1955,0.39101,0.64516
0.078201,0.1564,0.34213,0.53763
0.068426,0.1173,0.30303,0.43988
0.068426,0.12708,0.28348,0.39101
0.068426,0.13685,0.26393,0.32258
0.068426,0.12708,0.25415,0.2737
0.078201,0.12708,0.22483,0.22483
0.078201,0.14663,0.24438,0.1955
0.068426,0.13685,0.2346,0.16618
0.058651,0.13685,0.22483,0.14663
0.048876,0.1173,0.20528,0.12708
0.048876,0.097752,0.21505,0.14663
0.039101,0.10753,0.20528,0.13685
0.048876,0.1173,0.1955,0.1173
0.048876,0.12708,0.18573,0.10753
0.048876,0.10753,0.21505,0.097752
0.048876,0.087977,0.1955,0.10753
0.058651,0.01955,0.17595,0.097752
0.068426,0,0.18573,0.097752
0.058651,0,0.1955,0.087977
0.068426,0,0.18573,0.078201
0.068426,0.039101,0.21505,0.048876
0.058651,0.01955,0.26393,0.048876
0.058651,0.029326,0.20528,0.039101
0.068426,0.039101,0.24438,0.039101
0.068426,0,0.25415,0.029326
0.068426,0.058651,0.24438,0.01955
0.068426,0.058651,0.22483,0.01955
0.058651,0.078201,0.22483,0.029326
0.058651,0.068426,0.21505,0.048876
0.048876,0.029326,0.20528,0.058651
0.048876,0.068426,0.1955,0.058651
0.048876,0.058651,0.1955,0.048876
0.039101,0.01955,0.17595,0.039101
0.029326,0.029326,0.16618,0.029326
0.029326,0.078201,0.16618,0.029326
0.029326,0.087977,0.17595,0.029326
0.029326,0.087977,0.20528,0.029326
0.029326,0.10753,0.20528,0.048876
0.029326,0.097752,0.22483,0.058651
0.048876,0.097752,0.22483,0.058651
0.048876,0.10753,0.28348,0.068426
0.048876,0.097752,0.29326,0.068426
0.039101,0.1173,0.28348,0.058651
0.039101,0.12708,0.33236,0.058651
0.048876,0.12708,0.32258,0.048876
0.039101,0.13685,0.31281,0.048876
0.029326,0.12708,0.31281,0.039101
0.029326,0.12708,0.30303,0.029326
0.029326,0.1564,0.29326,0.029326
0.01955,0.1955,0.34213,0.058651
0.01955,0.20528,0.35191,0.048876
0.01955,0.1955,0.34213,0.048876
0.01955,0.20528,0.37146,0.048876
0.01955,0.22483,0.39101,0.039101
0.029326,0.2346,0.44966,0.029326
0.01955,0.20528,0.43988,0.029326
0.01955,0.18573,0.50831,0.029326
0.01955,0.25415,0.52786,0.01955
0.0097752,0.2346,0.51808,0.01955
0.0097752,0.24438,0.47898,0.0097752
0.0097752,0.2346,0.48876,0.0097752
0.01955,0.25415,0.56696,0.0097752
0.0097752,0.26393,0.57674,0.0097752
0.01955,0.26393,0.55718,0.01955
0.01955,0.28348,0.58651,0.048876
0.01955,0.30303,0.67449,0.097752
0.01955,0.28348,0.63539,0.078201
0.0097752,0.29326,0.65494,0.068426
0.0097752,0.2737,0.60606,0.058651
0.0097752,0.28348,0.67449,0.048876
0.0097752,0.29326,0.73314,0.058651
0.0097752,0.30303,0.68426,0.058651
0.0097752,0.28348,0.66471,0.068426
0.0097752,0.28348,0.67449,0.087977
0.0097752,0.26393,0.77224,0.12708
0.0097752,0.29326,0.71359,0.1564
0.0097752,0.30303,0.65494,0.14663
0.01955,0.30303,0.67449,0.14663
0.0097752,0.31281,0.76246,0.1955
0.0097752,0.32258,0.75269,0.20528
0.01955,0.34213,0.75269,0.21505
0.029326,0.33236,0.68426,0.21505
0.029326,0.32258,0.66471,0.25415
0.029326,0.31281,0.73314,0.2737
0.039101,0.31281,0.74291,0.34213
0.029326,0.36168,0.76246,0.31281
0.029326,0.39101,0.95797,0.28348
0.029326,0.42033,0.97752,0.25415
0.039101,0.41056,0.91887,0.21505
0.078201,0.40078,0.96774,0.21505
0.078201,0.41056,0.96774,0.20528
0.10753,0.42033,0.92864,0.24438
0.097752,0.46921,0.92864,0.25415
0.12708,0.46921,0.91887,0.2346
0.16618,0.43011,0.85044,0.1955
0.22483,0.43011,1.0459,0.1955
0.22483,0.43011,0.93842,0.18573
0.20528,0.42033,0.89932,0.17595
0.22483,0.41056,0.96774,0.17595
0.2346,0.42033,0.87977,0.16618
0.22483,0.51808,0.90909,0.16618
0.22483,0.58651,0.88954,0.20528
0.28348,0.55718,0.83089,0.22483
0.33236,0.60606,0.78201,0.2346
0.34213,0.55718,0.87977,0.21505
0.33236,0.53763,0.85044,0.1955
0.38123,0.49853,0.81134,0.21505
0.43011,0.44966,0.86999,0.20528
0.43011,0.41056,0.93842,0.18573
0.43011,0.38123,0.85044,0.1955
0.47898,0.41056,0.78201,0.16618
0.47898,0.44966,0.75269,0.1564
0.61584,0.44966,0.74291,0.1564
0.65494,0.44966,0.64516,0.1955
0.64516,0.49853,0.59629,0.18573
0.70381,0.46921,0.56696,0.1564
0.80156,0.41056,0.51808,0.14663
0.72336,0.40078,0.52786,0.16618
0.80156,0.38123,0.55718,0.18573
0.86999,0.35191,0.48876,0.16618
0.84066,0.31281,0.43988,0.2346
0.77224,0.35191,0.42033,0.2346
0.91887,0.31281,0.43011,0.2346
0.99707,0.30303,0.36168,0.2346
1.0557,0.31281,0.32258,0.24438
1.1046,0.2737,0.32258,0.22483
1.1241,0.2737,0.2737,0.22483
1.1926,0.26393,0.26393,0.21505
1.4467,0.24438,0.25415,0.1955
1.7204,0.2346,0.25415,0.1955
1.8964,0.21505,0.24438,0.1955
1.6716,0.24438,0.21505,0.22483
1.5152,0.25415,0.20528,0.20528
1.4272,0.26393,0.26393,0.21505
1.5152,0.28348,0.28348,0.2737
1.4272,0.34213,0.25415,0.26393
1.3783,0.32258,0.22483,0.25415
1.4076,0.30303,0.22483,0.25415
1.3196,0.32258,0.2346,0.26393
1.2805,0.31281,0.22483,0.24438
1.2903,0.29326,0.20528,0.24438
1.3099,0.31281,0.21505,0.26393
1.349,0.34213,0.29326,0.25415
1.2414,0.32258,0.26393,0.21505
1.2414,0.32258,0.29326,0.21505
1.3783,0.34213,0.31281,0.25415
1.5347,0.35191,0.33236,0.24438
1.5445,0.33236,0.30303,0.22483
1.437,0.34213,0.2737,0.21505
1.5054,0.38123,0.29326,0.22483
1.4663,0.40078,0.30303,0.21505
1.4565,0.41056,0.32258,0.22483
1.5347,0.40078,0.30303,0.22483
1.4272,0.42033,0.29326,0.22483
1.4663,0.43988,0.30303,0.22483
1.6911,0.38123,0.30303,0.20528
1.5934,0.36168,0.28348,0.1955
1.5347,0.35191,0.28348,0.2346
1.5543,0.39101,0.29326,0.2346
1.5445,0.35191,0.30303,0.20528
1.4467,0.32258,0.28348,0.1955
1.2512,0.29326,0.2737,0.20528
1.173,0.29326,0.28348,0.18573
1.0557,0.28348,0.30303,0.16618
1.085,0.28348,0.30303,0.17595
1.0264,0.26393,0.32258,0.17595
1.1339,0.31281,0.33236,0.16618
1.1046,0.34213,0.33236,0.1564
1.1632,0.32258,0.34213,0.1564
1.3001,0.34213,0.32258,0.18573
1.3001,0.31281,0.30303,0.1564
1.3196,0.30303,0.32258,0.14663
1.3294,0.32258,0.32258,0.18573
1.2219,0.32258,0.30303,0.20528
1.2023,0.33236,0.35191,0.20528
1.3881,0.33236,0.34213,0.16618
1.2219,0.32258,0.31281,0.1955
1.1535,0.31281,0.33236,0.1955
0.98729,0.30303,0.32258,0.1955
1.0264,0.28348,0.37146,0.17595
0.97752,0.25415,0.39101,0.1564
0.84066,0.29326,0.34213,0.14663
0.70381,0.2737,0.35191,0.14663
0.67449,0.2737,0.36168,0.16618
0.56696,0.28348,0.34213,0.18573
0.47898,0.29326,0.36168,0.1955
0.47898,0.25415,0.35191,0.17595
0.44966,0.25415,0.35191,0.16618
0.43011,0.26393,0.33236,0.13685
0.40078,0.24438,0.32258,0.13685
0.39101,0.21505,0.34213,0.12708
0.37146,0.22483,0.35191,0.1173
0.34213,0.24438,0.33236,0.1173
0.38123,0.2346,0.34213,0.14663
0.35191,0.22483,0.37146,0.1173
0.33236,0.21505,0.32258,0.1173
0.30303,0.21505,0.35191,0.14663
0.32258,0.20528,0.33236,0.13685
0.37146,0.20528,0.32258,0.10753
0.36168,0.20528,0.33236,0.097752
0.35191,0.2346,0.31281,0.087977
0.42033,0.21505,0.30303,0.078201
0.44966,0.21505,0.35191,0.068426
0.41056,0.22483,0.34213,0.1173
0.44966,0.21505,0.31281,0.097752
0.44966,0.21505,0.30303,0.087977
0.46921,0.22483,0.2737,0.087977
0.48876,0.20528,0.2737,0.078201
0.45943,0.22483,0.2737,0.078201
0.51808,0.22483,0.28348,0.068426
0.55718,0.20528,0.28348,0.078201
0.48876,0.1955,0.26393,0.087977
0.48876,0.20528,0.2737,0.087977
0.45943,0.1955,0.31281,0.087977
0.44966,0.18573,0.31281,0.087977
0.50831,0.20528,0.30303,0.097752
0.49853,0.20528,0.34213,0.1173
0.51808,0.17595,0.36168,0.10753
0.49853,0.1955,0.33236,0.12708
0.53763,0.17595,0.33236,0.14663
0.53763,0.17595,0.32258,0.12708
0.50831,0.17595,0.30303,0.12708
0.48876,0.16618,0.32258,0.12708
0.42033,0.16618,0.30303,0.12708
0.40078,0.16618,0.26393,0.14663
0.40078,0.1564,0.2346,0.14663
0.42033,0.17595,0.25415,0.12708
0.40078,0.18573,0.26393,0.10753
0.43011,0.16618,0.29326,0.1173
0.46921,0.16618,0.28348,0.12708
0.47898,0.21505,0.26393,0.12708
0.42033,0.20528,0.25415,0.1173
0.43011,0.20528,0.24438,0.1173
0.44966,0.1955,0.2346,0.10753
0.41056,0.18573,0.22483,0.10753
0.42033,0.17595,0.22483,0.097752
0.39101,0.17595,0.2346,0.087977
0.36168,0.16618,0.21505,0.097752
0.35191,0.16618,0.21505,0.1173
0.36168,0.17595,0.24438,0.10753
0.44966,0.16618,0.26393,0.10753
0.59629,0.1564,0.25415,0.10753
0.52786,0.14663,0.2737,0.10753
0.47898,0.14663,0.26393,0.10753
0.46921,0.16618,0.26393,0.1173
0.43011,0.1564,0.28348,0.13685
0.37146,0.14663,0.2737,0.14663
0.37146,0.16618,0.26393,0.13685
0.42033,0.1564,0.2737,0.12708
0.41056,0.13685,0.2737,0.16618
0.44966,0.12708,0.2737,0.16618
0.37146,0.14663,0.2737,0.17595
0.32258,0.1564,0.2737,0.17595
0.33236,0.13685,0.24438,0.18573
0.36168,0.13685,0.25415,0.16618
0.33236,0.14663,0.25415,0.16618
0.31281,0.13685,0.25415,0.17595
0.30303,0.14663,0.24438,0.16618
0.2737,0.14663,0.2737,0.1564
0.30303,0.13685,0.31281,0.13685
0.31281,0.13685,0.28348,0.14663
0.30303,0.12708,0.28348,0.16618
0.26393,0.13685,0.2737,0.1564
0.26393,0.14663,0.25415,0.1564
0.32258,0.13685,0.32258,0.17595
0.32258,0.13685,0.33236,0.17595
0.30303,0.14663,0.34213,0.17595
0.25415,0.14663,0.32258,0.16618
0.20528,0.14663,0.31281,0.1564
0.17595,0.14663,0.30303,0.13685
0.17595,0.14663,0.30303,0.10753
0.1564,0.1564,0.28348,0.10753
0.14663,0.14663,0.2737,0.14663
0.14663,0.13685,0.29326,0.13685
0.14663,0.13685,0.24438,0.16618
0.13685,0.13685,0.2346,0.1564
0.10753,0.13685,0.22483,0.14663
0.087977,0.12708,0.22483,0.16618
0.097752,0.13685,0.25415,0.14663
0.13685,0.13685,0.28348,0.13685
0.13685,0.14663,0.26393,0.13685
0.12708,0.14663,0.24438,0.1173
0.10753,0.13685,0.25415,0.10753
0.1173,0.14663,0.24438,0.097752
0.1173,0.13685,0.2346,0.097752
0.13685,0.14663,0.22483,0.12708
0.14663,0.17595,0.21505,0.14663
0.14663,0.16618,0.21505,0.14663
0.1564,0.1564,0.21505,0.14663
0.14663,0.14663,0.20528,0.14663
0.12708,0.14663,0.1955,0.13685
0.1173,0.14663,0.1955,0.13685
0.087977,0.13685,0.22483,0.12708
0.078201,0.12708,0.22483,0.10753
0.10753,0.13685,0.2737,0.097752
0.1173,0.12708,0.29326,0.12708
0.1173,0.1173,0.28348,0.10753
0.13685,0.12708,0.2737,0.097752
0.14663,0.14663,0.25415,0.10753
0.12708,0.12708,0.22483,0.1173
0.10753,0.1173,0.2346,0.10753
0.1173,0.12708,0.24438,0.1173
0.10753,0.12708,0.22483,0.10753
0.097752,0.12708,0.24438,0.13685
0.078201,0.14663,0.24438,0.13685
0.068426,0.1564,0.25415,0.1173
0.068426,0.14663,0.2346,0.097752
0.078201,0.13685,0.22483,0.10753
0.087977,0.13685,0.22483,0.10753
0.097752,0.13685,0.24438,0.12708
0.1173,0.12708,0.22483,0.1173
0.12708,0.12708,0.22483,0.10753
0.10753,0.13685,0.22483,0.10753
0.10753,0.12708,0.20528,0.1173
0.087977,0.13685,0.21505,0.10753
0.087977,0.12708,0.2346,0.10753
0.097752,0.1173,0.2346,0.1173
0.097752,0.10753,0.21505,0.1173
0.10753,0.10753,0.20528,0.12708
0.087977,0.10753,0.1955,0.12708
0.10753,0.12708,0.20528,0.12708
0.097752,0.1173,0.1955,0.12708
0.078201,0.10753,0.21505,0.10753
0.068426,0.10753,0.20528,0.1173
0.058651,0.1173,0.20528,0.097752
0.068426,0.12708,0.21505,0.1564
0.097752,0.12708,0.22483,0.097752
0.087977,0.12708,0.22483,0.10753
0.078201,0.1173,0.21505,0.10753
0.087977,0.1173,0.20528,0.097752
0.087977,0.12708,0.20528,0.087977
0.058651,0.12708,0.20528,0.10753
0.029326,0.1173,0.21505,0.12708
0.039101,0.12708,0.20528,0.1173
0.029326,0.13685,0.21505,0.13685
0.01955,0.13685,0.2346,0.1564
0.029326,0.13685,0.22483,0.16618
0.01955,0.13685,0.22483,0.16618
0.029326,0.14663,0.24438,0.16618
0.039101,0.14663,0.2346,0.14663
0.039101,0.14663,0.21505,0.12708
0.029326,0.1564,0.21505,0.12708
0.029326,0.14663,0.22483,0.1173
0.029326,0.14663,0.21505,0.10753
0.039101,0.12708,0.20528,0.1173
0.029326,0.12708,0.21505,0.1173
0.039101,0.1173,0.22483,0.12708
0.048876,0.13685,0.20528,0.12708
0.058651,0.12708,0.1955,0.14663
0.058651,0.1173,0.20528,0.13685
0.039101,0.12708,0.20528,0.13685
0.058651,0.13685,0.18573,0.17595
0.048876,0.13685,0.18573,0.10753
0.048876,0.13685,0.20528,0.097752
0.039101,0.1564,0.1955,0.1173
0.029326,0.14663,0.18573,0.10753
0.029326,0.13685,0.1955,0.10753
0.01955,0.14663,0.20528,0.1173
0.0097752,0.13685,0.21505,0.1173
0.01955,0.18573,0.20528,0.097752
0.01955,0.1955,0.20528,0.10753
0.01955,0.16618,0.21505,0.10753
0.0097752,0.1564,0.22483,0.10753
0.029326,0.1564,0.22483,0.087977
0.029326,0.14663,0.21505,0.10753
0.0097752,0.1564,0.20528,0.087977
0.029326,0.1564,0.21505,0.078201
0.01955,0.13685,0.22483,0.087977
0.0097752,0.13685,0.2346,0.087977
0.01955,0.14663,0.25415,0.078201
0,0.1564,0.24438,0.068426
0.029326,0.14663,0.25415,0.068426
0.048876,0.1564,0.24438,0.097752
0.048876,0.16618,0.25415,0.10753
0.029326,0.14663,0.2346,0.097752
0.01955,0.16618,0.2346,0.10753
0.048876,0.16618,0.2346,0.13685
0.058651,0.1564,0.24438,0.13685
0.058651,0.16618,0.2346,0.14663
0.058651,0.1564,0.20528,0.14663
0.068426,0.14663,0.20528,0.13685
0.068426,0.16618,0.1955,0.13685
0.068426,0.1564,0.18573,0.13685
0.068426,0.1564,0.18573,0.12708
0.058651,0.1564,0.1955,0.1564
0.068426,0.14663,0.1955,0.13685
0.068426,0.13685,0.1955,0.13685
0.058651,0.13685,0.1955,0.12708
0.068426,0.14663,0.21505,0.12708
0.048876,0.13685,0.20528,0.10753
0.048876,0.1564,0.21505,0.10753
0.048876,0.16618,0.22483,0.1173
0.039101,0.16618,0.20528,0.1173
0.029326,0.16618,0.21505,0.1173
0.058651,0.14663,0.20528,0.14663
0.078201,0.13685,0.1955,0.14663
0.068426,0.1564,0.18573,0.13685
0.078201,0.14663,0.16618,0.17595
0.068426,0.14663,0.16618,0.1564
0.058651,0.1564,0.17595,0.13685
0.068426,0.14663,0.18573,0.1564
0.068426,0.13685,0.21505,0.14663
0.068426,0.12708,0.21505,0.18573
0.078201,0.13685,0.22483,0.17595
0.068426,0.12708,0.22483,0.1564
0.068426,0.12708,0.25415,0.14663
0.058651,0.12708,0.21505,0.14663
0.058651,0.13685,0.22483,0.14663
0.078201,0.13685,0.21505,0.16618
0.078201,0.13685,0.22483,0.1564
0.068426,0.12708,0.20528,0.1564
0.068426,0.12708,0.20528,0.13685
0.078201,0.12708,0.21505,0.13685
0.078201,0.12708,0.20528,0.12708
0.078201,0.12708,0.21505,0.12708
0.078201,0.13685,0.20528,0.12708
0.068426,0.12708,0.20528,0.10753
0.058651,0.13685,0.20528,0.097752
0.068426,0.12708,0.21505,0.097752
0.068426,0.1173,0.1955,0.097752
0.078201,0.14663,0.18573,0.087977
0.068426,0.14663,0.18573,0.087977
0.068426,0.14663,0.17595,0.10753
0.068426,0.14663,0.18573,0.1173
0.068426,0.14663,0.17595,0.097752
0.058651,0.13685,0.20528,0.10753
0.068426,0.13685,0.20528,0.1173
0.048876,0.13685,0.18573,0.12708
0.048876,0.12708,0.18573,0.12708
0.058651,0.1564,0.1955,0.10753
0.048876,0.1564,0.18573,0.10753
0.048876,0.1564,0.18573,0.097752
0.048876,0.14663,0.17595,0.097752
0.048876,0.1564,0.17595,0.097752
0.048876,0.17595,0.18573,0.12708
0.048876,0.16618,0.18573,0.13685
0.039101,0.16618,0.1955,0.13685
0.039101,0.17595,0.18573,0.13685
0.039101,0.14663,0.20528,0.12708
0.039101,0.14663,0.18573,0.13685
0.039101,0.14663,0.18573,0.1173
0.029326,0.12708,0.18573,0.10753
0.048876,0.13685,0.18573,0.087977
0.058651,0.14663,0.17595,0.097752
0.058651,0.1564,0.18573,0.1173
0.048876,0.14663,0.17595,0.1173
0.048876,0.14663,0.17595,0.10753
0.039101,0.14663,0.18573,0.1173
0.039101,0.13685,0.1955,0.097752
0.048876,0.14663,0.22483,0.087977
0.048876,0.1564,0.24438,0.1173
0.039101,0.1564,0.22483,0.1173
0.039101,0.1564,0.2346,0.13685
0.048876,0.1564,0.2737,0.21505
0.039101,0.14663,0.26393,0.21505
0.029326,0.1564,0.28348,0.22483
0.01955,0.1564,0.26393,0.28348
0.029326,0.18573,0.28348,0.33236
0.029326,0.20528,0.29326,0.34213
0.039101,0.21505,0.33236,0.31281
0.097752,0.21505,0.33236,0.31281
0.029326,0.2346,0.34213,0.44966
0.039101,0.21505,0.37146,0.40078
0.039101,0.25415,0.35191,0.37146
0.039101,0.29326,0.41056,0.38123
0.029326,0.31281,0.42033,0.35191
0.029326,0.33236,0.43988,0.36168
0.029326,0.34213,0.43011,0.44966
0.01955,0.35191,0.45943,0.46921
0.01955,0.34213,0.47898,0.50831
0.0097752,0.33236,0.46921,0.54741
0.0097752,0.34213,0.47898,0.61584
0.01955,0.34213,0.51808,0.54741
0.01955,0.34213,0.57674,0.54741
0.01955,0.34213,0.57674,0.50831
0.0097752,0.41056,0.51808,0.59629
0.0097752,0.38123,0.51808,0.62561
0.0097752,0.39101,0.56696,0.65494
0.0097752,0.38123,0.56696,0.71359
0.0097752,0.45943,0.60606,0.79179
0.01955,0.51808,0.58651,0.74291
0.01955,0.50831,0.62561,0.76246
0.0097752,0.56696,0.63539,0.85044
0.0097752,0.59629,0.64516,0.80156
0.0097752,0.58651,0.69404,0.96774
0.0097752,0.52786,0.73314,1.0068
0.01955,0.55718,0.75269,1.0362
0.01955,0.62561,0.74291,1.0362
0.0097752,0.57674,0.73314,1.1144
0.0097752,0.53763,0.90909,1.173
0.0097752,0.56696,0.94819,1.0264
0.0097752,0.59629,1.0264,1.0557
0,0.57674,1.1828,1.2708
0.039101,0.53763,1.1241,1.1632
0.029326,0.48876,1.0655,1.1632
0.058651,0.51808,1.085,1.2512
0.068426,0.57674,1.1828,1.3294
0.068426,0.70381,1.2805,1.4663
0.087977,0.71359,1.2317,1.4761
0.097752,0.64516,1.1632,1.4663
0.1173,0.72336,1.0753,1.4956
0.1564,0.80156,1.0557,1.4663
0.1955,0.74291,0.95797,1.4467
0.1564,0.71359,0.87977,1.4761
0.17595,0.69404,1.0264,1.4272
0.18573,0.66471,1.0459,1.3978
0.20528,0.74291,0.99707,1.4858
0.24438,0.81134,0.96774,1.4272
0.24438,0.85044,0.91887,1.3685
0.26393,0.94819,0.98729,1.4272
0.26393,0.86022,0.92864,1.4467
0.37146,0.83089,0.91887,1.3783
0.42033,0.75269,0.97752,1.4467
0.40078,0.69404,1.0753,1.3881
0.39101,0.69404,1.2708,1.3587
0.43011,0.69404,1.4663,1.3978
0.40078,0.63539,1.3783,1.2121
0.40078,0.68426,1.2023,1.1144
0.46921,0.79179,1.3587,1.0362
0.50831,0.69404,1.2219,1.0068
0.59629,0.69404,1.1926,0.95797
0.54741,0.63539,1.0655,0.94819
0.56696,0.54741,1.085,0.90909
0.61584,0.49853,1.1437,0.90909
0.76246,0.43988,1.0655,0.84066
0.70381,0.41056,0.98729,0.77224
0.67449,0.39101,0.86022,0.89932
0.65494,0.35191,0.93842,0.84066
0.64516,0.30303,0.94819,0.84066
0.62561,0.28348,0.91887,0.81134
0.62561,0.25415,0.83089,0.74291
0.68426,0.22483,0.83089,0.71359
0.68426,0.20528,0.78201,0.76246
0.89932,0.20528,0.75269,0.74291
0.86022,0.21505,0.73314,0.66471
0.77224,0.20528,0.70381,0.63539
0.75269,0.21505,0.67449,0.62561
0.92864,0.21505,0.58651,0.56696
0.96774,0.22483,0.55718,0.49853
0.89932,0.21505,0.56696,0.50831
0.87977,0.21505,0.50831,0.44966
1.085,0.21505,0.45943,0.41056
1.0459,0.20528,0.40078,0.43988
1.0068,0.22483,0.42033,0.39101
1.1339,0.21505,0.35191,0.34213
1.0948,0.25415,0.35191,0.30303
1.0557,0.26393,0.31281,0.32258
1.0948,0.24438,0.29326,0.29326
1.1437,0.25415,0.2737,0.29326
1.261,0.24438,0.24438,0.2737
1.2414,0.25415,0.2737,0.26393
1.1632,0.28348,0.26393,0.2346
1.0655,0.28348,0.2737,0.22483
1.1437,0.2737,0.25415,0.25415
1.1046,0.2737,0.2346,0.26393
1.0166,0.29326,0.24438,0.29326
1.1144,0.28348,0.22483,0.28348
1.349,0.24438,0.21505,0.29326
1.564,0.28348,0.21505,0.29326
1.437,0.2737,0.24438,0.29326
1.4565,0.25415,0.24438,0.30303
1.4076,0.2346,0.24438,0.30303
1.4565,0.22483,0.22483,0.29326
1.3978,0.2346,0.2346,0.33236
1.3196,0.25415,0.25415,0.33236
1.2512,0.26393,0.2346,0.29326
1.1241,0.24438,0.2346,0.36168
1.0362,0.22483,0.2346,0.33236
0.88954,0.22483,0.22483,0.32258
0.86022,0.24438,0.21505,0.38123
0.91887,0.2346,0.20528,0.35191
0.86022,0.28348,0.20528,0.34213
0.83089,0.25415,0.20528,0.34213
0.81134,0.26393,0.1955,0.32258
0.72336,0.26393,0.20528,0.31281
0.66471,0.2737,0.22483,0.33236
0.61584,0.2737,0.25415,0.33236
0.58651,0.26393,0.24438,0.35191
0.52786,0.26393,0.30303,0.35191
0.50831,0.26393,0.28348,0.34213
0.47898,0.26393,0.2737,0.32258
0.43011,0.24438,0.29326,0.30303
0.44966,0.2346,0.28348,0.39101
0.48876,0.2737,0.32258,0.40078
0.46921,0.2737,0.33236,0.44966
0.43988,0.26393,0.35191,0.48876
0.45943,0.2346,0.34213,0.62561
0.44966,0.2346,0.34213,0.64516
0.43011,0.24438,0.37146,0.58651
0.47898,0.24438,0.35191,0.56696
0.49853,0.22483,0.39101,0.54741
0.49853,0.24438,0.35191,0.54741
0.43988,0.22483,0.35191,0.53763
0.53763,0.2346,0.33236,0.58651
0.61584,0.2346,0.33236,0.63539
0.57674,0.2346,0.39101,0.64516
0.51808,0.22483,0.35191,0.61584
0.55718,0.1955,0.35191,0.58651
0.58651,0.22483,0.45943,0.64516
0.50831,0.21505,0.43011,0.69404
0.52786,0.22483,0.41056,0.70381
0.52786,0.2346,0.37146,0.75269
0.53763,0.21505,0.39101,0.71359
0.53763,0.2346,0.41056,0.69404
0.49853,0.22483,0.43988,0.73314
0.53763,0.1955,0.41056,0.66471
0.51808,0.1955,0.38123,0.62561
0.49853,0.18573,0.40078,0.56696
0.54741,0.18573,0.40078,0.54741
0.52786,0.1955,0.40078,0.54741
0.49853,0.18573,0.36168,0.54741
0.52786,0.18573,0.31281,0.47898
0.53763,0.1955,0.30303,0.52786
0.49853,0.21505,0.31281,0.59629
0.51808,0.21505,0.29326,0.66471
0.50831,0.21505,0.29326,0.63539
0.52786,0.18573,0.37146,0.61584
0.48876,0.18573,0.32258,0.56696
0.58651,0.18573,0.29326,0.52786
0.56696,0.17595,0.29326,0.46921
0.50831,0.1564,0.28348,0.47898
0.43011,0.14663,0.24438,0.43011
0.43011,0.13685,0.24438,0.50831
0.48876,0.12708,0.2346,0.52786
0.48876,0.13685,0.2737,0.46921
0.55718,0.13685,0.26393,0.41056
0.56696,0.13685,0.25415,0.38123
0.42033,0.14663,0.2346,0.36168
0.48876,0.12708,0.25415,0.34213
0.53763,0.13685,0.26393,0.32258
0.55718,0.13685,0.25415,0.32258
0.51808,0.14663,0.25415,0.29326
0.50831,0.14663,0.2737,0.2737
0.56696,0.12708,0.25415,0.25415
0.52786,0.12708,0.25415,0.2346
0.62561,0.13685,0.24438,0.26393
0.59629,0.14663,0.24438,0.25415
0.58651,0.14663,0.2346,0.2346
0.65494,0.14663,0.2346,0.20528
0.63539,0.14663,0.25415,0.17595
0.56696,0.13685,0.26393,0.14663
0.54741,0.14663,0.25415,0.1173
0.50831,0.1564,0.22483,0.097752
0.58651,0.13685,0.20528,0.087977
0.57674,0.13685,0.22483,0.068426
0.51808,0.13685,0.2346,0.058651
0.44966,0.1173,0.20528,0.058651
0.43988,0.12708,0.20528,0.039101
0.42033,0.14663,0.25415,0.029326
0.52786,0.14663,0.2737,0.029326
0.52786,0.13685,0.30303,0.029326
0.50831,0.13685,0.33236,0.029326
0.53763,0.12708,0.35191,0.029326
0.47898,0.1173,0.41056,0.039101
0.48876,0.1173,0.43011,0.039101
0.49853,0.1173,0.36168,0.048876
0.45943,0.14663,0.43011,0.058651
0.41056,0.14663,0.50831,0.048876
0.46921,0.14663,0.45943,0.048876
0.48876,0.14663,0.43988,0.048876
0.44966,0.17595,0.47898,0.068426
0.43988,0.17595,0.49853,0.068426
0.39101,0.17595,0.45943,0.058651
0.36168,0.1564,0.41056,0.048876
0.35191,0.14663,0.48876,0.039101
0.38123,0.1564,0.48876,0.048876
0.43011,0.1564,0.49853,0.058651
0.43011,0.14663,0.45943,0.10753
0.42033,0.1564,0.52786,0.10753
0.37146,0.13685,0.48876,0.087977
0.42033,0.14663,0.47898,0.087977
0.48876,0.14663,0.44966,0.097752
0.42033,0.14663,0.41056,0.10753
0.38123,0.14663,0.43011,0.14663
0.36168,0.13685,0.43988,0.2346
0.38123,0.12708,0.38123,0.21505
0.37146,0.14663,0.35191,0.20528
0.33236,0.14663,0.39101,0.17595
0.35191,0.14663,0.43988,0.18573
0.37146,0.13685,0.41056,0.17595
0.37146,0.12708,0.41056,0.17595
0.36168,0.13685,0.39101,0.18573
0.35191,0.14663,0.35191,0.16618
0.38123,0.13685,0.34213,0.1564
0.34213,0.12708,0.43988,0.1564
0.32258,0.12708,0.42033,0.20528
0.33236,0.12708,0.44966,0.18573
0.33236,0.14663,0.43011,0.16618
0.31281,0.13685,0.40078,0.1564
0.2737,0.14663,0.36168,0.1564
0.2346,0.13685,0.34213,0.16618
0.25415,0.13685,0.35191,0.20528
0.2737,0.1564,0.36168,0.2346
0.29326,0.16618,0.36168,0.24438
0.2737,0.1564,0.35191,0.21505
0.28348,0.1564,0.34213,0.25415
0.31281,0.13685,0.32258,0.26393
0.28348,0.14663,0.30303,0.28348
0.26393,0.14663,0.36168,0.26393
0.2346,0.1564,0.35191,0.24438
0.20528,0.1564,0.35191,0.22483
0.17595,0.16618,0.35191,0.26393
0.1564,0.1564,0.32258,0.24438
0.17595,0.14663,0.36168,0.25415
0.17595,0.14663,0.38123,0.30303
0.1564,0.13685,0.33236,0.28348
0.14663,0.1173,0.2737,0.28348
0.13685,0.12708,0.28348,0.30303
0.13685,0.14663,0.25415,0.32258
0.12708,0.14663,0.26393,0.32258
0.13685,0.13685,0.25415,0.34213
0.12708,0.17595,0.24438,0.30303
0.1955,0.16618,0.2737,0.29326
0.22483,0.1564,0.26393,0.33236
0.21505,0.16618,0.29326,0.28348
0.20528,0.16618,0.28348,0.22483
0.2346,0.14663,0.30303,0.22483
0.22483,0.14663,0.28348,0.2346
0.24438,0.14663,0.28348,0.21505
0.25415,0.14663,0.28348,0.20528
0.22483,0.13685,0.34213,0.2346
0.21505,0.12708,0.32258,0.21505
0.22483,0.13685,0.29326,0.1955
0.1955,0.12708,0.29326,0.20528
0.21505,0.13685,0.2737,0.1955
0.1955,0.13685,0.28348,0.17595
0.20528,0.14663,0.2737,0.21505
0.24438,0.13685,0.25415,0.21505
0.21505,0.13685,0.2346,0.2346
0.24438,0.14663,0.2346,0.2346
0.22483,0.13685,0.22483,0.2346
0.21505,0.13685,0.25415,0.21505
0.17595,0.13685,0.21505,0.16618
0.18573,0.12708,0.18573,0.1955
0.20528,0.12708,0.31281,0.18573
0.18573,0.12708,0.30303,0.16618
0.1955,0.12708,0.24438,0.14663
0.16618,0.12708,0.24438,0.12708
0.16618,0.12708,0.30303,0.097752
0.1564,0.1173,0.2737,0.078201
0.12708,0.13685,0.2737,0.087977
0.13685,0.13685,0.26393,0.12708
0.16618,0.12708,0.26393,0.14663
0.1564,0.1173,0.2346,0.13685
0.16618,0.13685,0.28348,0.14663
0.16618,0.12708,0.30303,0.14663
0.18573,0.12708,0.26393,0.14663
0.18573,0.10753,0.26393,0.1564
0.1955,0.12708,0.2737,0.16618
0.1955,0.13685,0.24438,0.16618
0.17595,0.13685,0.2346,0.13685
0.16618,0.1173,0.2737,0.13685
0.1564,0.1173,0.26393,0.13685
0.14663,0.10753,0.2737,0.1564
0.13685,0.10753,0.28348,0.1564
0.12708,0.1173,0.25415,0.14663
0.1173,0.12708,0.2737,0.12708
0.1173,0.14663,0.26393,0.13685
0.1173,0.13685,0.25415,0.14663
0.12708,0.13685,0.2346,0.12708
0.12708,0.13685,0.22483,0.13685
0.1173,0.12708,0.2346,0.14663
0.1173,0.13685,0.22483,0.16618
0.10753,0.12708,0.21505,0.1564
0.10753,0.1173,0.29326,0.1955
0.12708,0.12708,0.26393,0.1955
0.1173,0.1173,0.37146,0.20528
0.097752,0.10753,0.34213,0.17595
0.1173,0.097752,0.32258,0.2346
0.12708,0.087977,0.30303,0.2346
0.12708,0.087977,0.30303,0.25415
0.13685,0.097752,0.28348,0.1955
0.12708,0.10753,0.28348,0.26393
0.12708,0.10753,0.29326,0.28348
0.12708,0.1173,0.28348,0.30303
0.12708,0.10753,0.2737,0.30303
0.12708,0.097752,0.28348,0.28348
0.14663,0.097752,0.2737,0.28348
0.1564,0.10753,0.2737,0.2737
0.13685,0.10753,0.25415,0.2346
0.10753,0.10753,0.26393,0.2346
0.10753,0.1173,0.24438,0.2346
0.13685,0.097752,0.2346,0.21505
0.13685,0.097752,0.21505,0.18573
0.14663,0.1173,0.2346,0.20528
0.14663,0.1173,0.21505,0.22483
0.14663,0.12708,0.22483,0.22483
0.14663,0.13685,0.22483,0.1955
0.18573,0.13685,0.24438,0.17595
0.18573,0.13685,0.22483,0.18573
0.20528,0.13685,0.2346,0.18573
0.21505,0.14663,0.24438,0.20528
0.21505,0.14663,0.25415,0.26393
0.18573,0.13685,0.2346,0.30303
0.18573,0.13685,0.2346,0.35191
0.18573,0.13685,0.2346,0.35191
0.1955,0.12708,0.21505,0.43011
0.21505,0.12708,0.21505,0.43011
0.2346,0.1173,0.22483,0.40078
0.21505,0.12708,0.26393,0.36168
0.1955,0.12708,0.25415,0.32258
0.20528,0.14663,0.26393,0.31281
0.18573,0.1564,0.2346,0.2346
0.16618,0.14663,0.20528,0.2346
0.13685,0.14663,0.26393,0.1955
0.13685,0.13685,0.25415,0.17595
0.12708,0.12708,0.26393,0.16618
0.1173,0.12708,0.28348,0.14663
0.14663,0.13685,0.28348,0.13685
0.13685,0.12708,0.29326,0.13685
0.1173,0.12708,0.2737,0.13685
0.13685,0.13685,0.25415,0.13685
0.14663,0.12708,0.2346,0.13685
0.12708,0.1173,0.24438,0.14663
0.10753,0.1173,0.26393,0.13685
0.1173,0.10753,0.24438,0.1173
0.12708,0.12708,0.25415,0.10753
0.12708,0.1173,0.28348,0.097752
0.1173,0.10753,0.25415,0.087977
0.1173,0.12708,0.25415,0.10753
0.1173,0.12708,0.25415,0.097752
0.1173,0.12708,0.2737,0.10753
0.097752,0.1173,0.29326,0.10753
0.10753,0.12708,0.2737,0.1173
0.10753,0.14663,0.2737,0.14663
0.097752,0.13685,0.25415,0.12708
0.097752,0.13685,0.25415,0.10753
0.10753,0.13685,0.24438,0.10753
0.10753,0.12708,0.25415,0.10753
0.10753,0.13685,0.26393,0.10753
0.097752,0.1564,0.32258,0.1173
0.087977,0.14663,0.29326,0.097752
0.087977,0.14663,0.2737,0.087977
0.097752,0.14663,0.26393,0.078201
0.1173,0.13685,0.29326,0.068426
0.10753,0.13685,0.29326,0.068426
0.087977,0.13685,0.26393,0.058651
0.10753,0.14663,0.25415,0.068426
0.097752,0.14663,0.24438,0.058651
0.087977,0.14663,0.25415,0.058651
0.10753,0.17595,0.25415,0.058651
0.10753,0.1955,0.29326,0.068426
0.1173,0.20528,0.28348,0.10753
0.097752,0.24438,0.30303,0.10753
0.078201,0.22483,0.28348,0.12708
0.078201,0.2346,0.28348,0.1564
0.087977,0.22483,0.29326,0.12708
0.068426,0.1955,0.30303,0.1173
0.058651,0.20528,0.30303,0.1173
0.058651,0.21505,0.29326,0.1173
0.068426,0.21505,0.28348,0.097752
0.078201,0.22483,0.28348,0.097752
0.058651,0.20528,0.2737,0.087977
0.048876,0.21505,0.28348,0.087977
0.039101,0.22483,0.29326,0.097752
0.029326,0.22483,0.30303,0.097752
0.029326,0.25415,0.31281,0.1173
0.048876,0.25415,0.33236,0.10753
0.048876,0.24438,0.37146,0.10753
0.039101,0.26393,0.38123,0.13685
0.029326,0.26393,0.34213,0.10753
0.029326,0.30303,0.37146,0.10753
0.01955,0.31281,0.38123,0.12708
0.029326,0.32258,0.44966,0.10753
0.01955,0.35191,0.47898,0.097752
0.0097752,0.33236,0.46921,0.10753
0.01955,0.33236,0.50831,0.1564
0.01955,0.31281,0.51808,0.14663
0.01955,0.29326,0.48876,0.1564
0.01955,0.30303,0.63539,0.14663
0.01955,0.30303,0.57674,0.17595
0.01955,0.32258,0.54741,0.17595
0.01955,0.36168,0.52786,0.1955
0.048876,0.33236,0.61584,0.20528
0.068426,0.32258,0.57674,0.2346
0.087977,0.31281,0.56696,0.26393
0.097752,0.31281,0.56696,0.25415
0.10753,0.31281,0.58651,0.24438
0.12708,0.37146,0.60606,0.22483
0.16618,0.36168,0.56696,0.1955
0.18573,0.36168,0.58651,0.1955
0.16618,0.42033,0.59629,0.20528
0.28348,0.45943,0.60606,0.25415
0.38123,0.41056,0.66471,0.29326
0.44966,0.45943,0.65494,0.40078
0.46921,0.52786,0.60606,0.43988
0.52786,0.49853,0.64516,0.40078
0.52786,0.48876,0.82111,0.42033
0.56696,0.50831,0.78201,0.43988
0.69404,0.54741,0.77224,0.45943
0.69404,0.68426,0.87977,0.46921
0.79179,0.69404,0.89932,0.55718
0.88954,0.66471,0.89932,0.63539
0.92864,0.66471,1.0362,0.61584
0.86022,0.65494,1.1339,0.70381
0.93842,0.64516,1.1241,0.74291
0.97752,0.61584,1.1046,0.67449
1.1241,0.58651,0.99707,0.74291
1.1632,0.57674,0.95797,0.73314
1.2121,0.67449,0.89932,0.88954
1.2805,0.74291,0.83089,0.95797
1.173,0.66471,0.86999,0.95797
1.4076,0.72336,0.86022,0.94819
1.5836,0.71359,0.92864,0.91887
1.5054,0.72336,0.86022,0.93842
1.437,0.68426,0.80156,0.97752
1.5152,0.58651,0.76246,0.99707
1.564,0.54741,0.79179,1.0166
1.8475,0.47898,0.85044,1.0459
1.9062,0.42033,0.84066,1.173
1.9941,0.40078,0.85044,1.1437
2.3558,0.37146,0.90909,1.0557
2.1896,0.33236,0.86999,1.0655
1.9453,0.32258,0.86999,1.1241
1.652,0.33236,0.77224,1.1535
1.5347,0.31281,0.82111,1.1339
1.4076,0.32258,0.79179,1.1535
1.3099,0.2737,0.80156,1.4076
1.3685,0.25415,0.76246,1.3392
1.4956,0.24438,0.80156,1.3685
1.3783,0.2346,0.78201,1.3685
1.7302,0.2346,0.69404,1.4272
2.0528,0.21505,0.72336,1.4467
1.8475,0.1955,0.68426,1.3783
1.7009,0.18573,0.64516,1.4076
1.4467,0.17595,0.60606,1.3001
1.261,0.1564,0.55718,1.3978
1.1144,0.17595,0.48876,1.2903
1.0459,0.17595,0.44966,1.2708
0.99707,0.17595,0.49853,1.1339
0.95797,0.17595,0.51808,1.1926
0.97752,0.17595,0.43988,1.1926
0.89932,0.17595,0.41056,1.3685
0.86999,0.18573,0.41056,1.4174
0.92864,0.21505,0.39101,1.3587
0.79179,0.21505,0.33236,1.3099
0.71359,0.2346,0.35191,1.2023
0.67449,0.26393,0.36168,1.2317
0.66471,0.32258,0.37146,1.2219
0.57674,0.35191,0.32258,1.3099
0.55718,0.32258,0.29326,1.2805
0.59629,0.34213,0.26393,1.2121
0.59629,0.38123,0.24438,1.2219
0.51808,0.40078,0.22483,1.2708
0.48876,0.35191,0.20528,1.2317
0.43011,0.36168,0.22483,1.3783
0.43988,0.38123,0.21505,1.3001
0.46921,0.34213,0.21505,1.2023
0.46921,0.32258,0.22483,1.1241
0.53763,0.34213,0.22483,1.1046
0.50831,0.33236,0.25415,0.98729
0.50831,0.31281,0.30303,0.92864
0.52786,0.31281,0.30303,0.86022
0.56696,0.33236,0.2737,0.81134
0.56696,0.28348,0.30303,0.81134
0.54741,0.2737,0.31281,0.75269
0.54741,0.29326,0.29326,0.73314
0.58651,0.30303,0.30303,0.69404
0.61584,0.30303,0.2737,0.66471
0.61584,0.28348,0.24438,0.68426
0.64516,0.2737,0.24438,0.68426
0.64516,0.26393,0.22483,0.76246
0.63539,0.26393,0.29326,0.73314
0.81134,0.2737,0.29326,0.74291
0.91887,0.24438,0.35191,0.75269
0.80156,0.22483,0.32258,0.80156
0.80156,0.22483,0.31281,0.72336
0.66471,0.24438,0.30303,0.76246
0.73314,0.25415,0.33236,0.67449
0.75269,0.2346,0.37146,0.68426
0.74291,0.2737,0.37146,0.69404
0.73314,0.25415,0.35191,0.64516
0.80156,0.26393,0.38123,0.69404
0.76246,0.29326,0.42033,0.68426
0.81134,0.2737,0.38123,0.68426
0.83089,0.25415,0.41056,0.62561
0.86999,0.26393,0.45943,0.62561
0.77224,0.2737,0.43988,0.68426
0.67449,0.24438,0.42033,0.62561
0.67449,0.2346,0.41056,0.60606
0.58651,0.26393,0.41056,0.55718
0.55718,0.2346,0.37146,0.53763
0.50831,0.22483,0.33236,0.51808
0.55718,0.21505,0.34213,0.52786
0.53763,0.22483,0.36168,0.47898
0.47898,0.22483,0.36168,0.45943
0.55718,0.21505,0.33236,0.52786
0.58651,2.1994,0.16618,0.36168
1.4272,2.4633,2.4242,1.6813
1.1535,1.9648,1.955,1.3685
0.92864,1.5738,1.5934,1.1339
0.76246,1.2903,1.3783,0.91887
0.63539,1.0459,1.1437,0.75269
0.51808,0.86022,0.93842,0.61584
0.42033,0.70381,0.79179,0.50831
0.34213,0.57674,0.69404,0.43011
0.28348,0.47898,0.60606,0.36168
0.24438,0.41056,0.54741,0.30303
0.20528,0.35191,0.52786,0.25415
0.18573,0.30303,0.48876,0.21505
0.1564,0.28348,0.45943,0.20528
0.13685,0.2346,0.46921,0.20528
0.1173,0.22483,0.42033,0.16618
0.10753,0.1955,0.45943,0.14663
0.12708,0.18573,0.40078,0.1564
0.1173,0.1564,0.41056,0.14663
0.097752,0.14663,0.37146,0.13685
0.087977,0.14663,0.36168,0.1173
0.078201,0.13685,0.35191,0.1173
0.097752,0.13685,0.37146,0.097752
0.087977,0.12708,0.35191,0.097752
0.078201,0.12708,0.35191,0.068426
0.068426,0.12708,0.31281,0.087977
0.068426,0.1173,0.31281,0.10753
0.058651,0.10753,0.31281,0.097752
0.058651,0.13685,0.29326,0.078201
0.058651,0.13685,0.31281,0.087977
0.048876,0.13685,0.34213,0.078201
0.048876,0.13685,0.35191,0.1173
0.039101,0.12708,0.32258,0.10753
0.039101,0.14663,0.30303,0.097752
0.068426,0.14663,0.30303,0.087977
0.058651,0.14663,0.2737,0.087977
0.048876,0.13685,0.26393,0.087977
0.039101,0.12708,0.2737,0.087977
0.068426,0.14663,0.26393,0.097752
0.058651,0.14663,0.25415,0.068426
0.058651,0.14663,0.26393,0.078201
0.048876,0.12708,0.28348,0.087977
0.048876,0.13685,0.26393,0.087977
0.068426,0.12708,0.29326,0.087977
0.058651,0.12708,0.29326,0.087977
0.048876,0.12708,0.2737,0.087977
0.039101,0.13685,0.29326,0.087977
0.029326,0.16618,0.29326,0.078201
0.039101,0.1564,0.28348,0.068426
0.048876,0.14663,0.2737,0.078201
0.039101,0.1564,0.26393,0.078201
0.029326,0.14663,0.24438,0.078201
0.029326,0.12708,0.24438,0.078201
0.039101,0.13685,0.25415,0.1173
0.029326,0.12708,0.26393,0.1173
0.029326,0.1173,0.26393,0.13685
0.029326,0.1173,0.29326,0.12708
0.01955,0.10753,0.32258,0.1564
0.029326,0.10753,0.28348,0.1564
0.029326,0.10753,0.28348,0.13685
0.029326,0.12708,0.29326,0.12708
0.01955,0.10753,0.29326,0.12708
0.01955,0.10753,0.30303,0.12708
0.01955,0.12708,0.30303,0.13685
0.01955,0.1173,0.26393,0.13685
0.029326,0.1173,0.2346,0.14663
0.039101,0.10753,0.2346,0.1564
0.029326,0.1173,0.26393,0.14663
0.029326,0.1173,0.24438,0.14663
0.039101,0.12708,0.2346,0.20528
0.029326,0.12708,0.24438,0.21505
0.029326,0.1173,0.24438,0.20528
0.01955,0.14663,0.22483,0.21505
0.01955,0.14663,0.24438,0.18573
0.01955,0.13685,0.24438,0.21505
0.0097752,0.13685,0.2346,0.20528
0.01955,0.13685,0.20528,0.1955
0.01955,0.12708,0.21505,0.18573
0.01955,0.16618,0.22483,0.1564
0.01955,0.1564,0.2346,0.14663
0.01955,0.14663,0.22483,0.13685
0.029326,0.14663,0.20528,0.13685
0.029326,0.1564,0.21505,0.1564
0.029326,0.14663,0.21505,0.17595
0.039101,0.14663,0.2346,0.21505
0.029326,0.12708,0.24438,0.22483
0.029326,0.12708,0.22483,0.21505
0.029326,0.13685,0.21505,0.24438
0.029326,0.12708,0.20528,0.2737
0.01955,0.14663,0.21505,0.29326
0.01955,0.13685,0.1955,0.32258
0.01955,0.14663,0.20528,0.34213
0.01955,0.1564,0.18573,0.42033
0.01955,0.1564,0.17595,0.53763
0.01955,0.14663,0.17595,0.53763
0.01955,0.1564,0.1955,0.66471
0.0097752,0.14663,0.18573,0.89932
0.01955,0.13685,0.1955,1.0166
0.01955,0.14663,0.21505,0.96774
0.0097752,0.13685,0.2346,0.91887
0.0097752,0.13685,0.25415,1.0166
0.0097752,0.13685,0.24438,1.0166
0.0097752,0.13685,0.22483,0.99707
0.0097752,0.13685,0.22483,0.95797
0.0097752,0.13685,0.24438,0.94819
0.029326,0.13685,0.2346,0.91887
0.029326,0.14663,0.22483,0.97752
0.048876,0.14663,0.20528,0.98729
0.078201,0.13685,0.1955,1.0753
0.097752,0.13685,0.22483,1.0655
0.12708,0.12708,0.20528,1.2219
0.18573,0.13685,0.21505,1.2903
0.18573,0.14663,0.21505,1.4663
0.21505,0.14663,0.2346,1.5445
0.22483,0.13685,0.22483,1.652
0.28348,0.12708,0.22483,1.7791
0.33236,0.1173,0.20528,1.652
0.37146,0.1173,0.18573,1.5445
0.45943,0.1173,0.22483,1.9062
0.48876,0.1173,0.20528,2.0332
0.46921,0.12708,0.20528,2.131
0.45943,0.13685,0.21505,2.1603
0.64516,0.13685,0.18573,2.2874
0.69404,0.16618,0.17595,2.4145
0.74291,0.1564,0.16618,2.3069
0.69404,0.14663,0.16618,2.5513
0.77224,0.13685,0.18573,2.4242
0.92864,0.13685,0.18573,2.5024
1.0362,0.13685,0.17595,2.5318
0.95797,0.1564,0.18573,2.4047
0.98729,0.14663,0.18573,2.346
0.90909,0.12708,0.21505,2.2483
0.79179,0.12708,0.20528,2.1408
0.84066,0.1173,0.1955,2.1603
0.80156,0.1173,0.20528,2.0235
1.2317,0.12708,0.20528,1.9062
1.2317,0.13685,0.22483,1.955
1.3196,0.1173,0.1955,1.7889
1.2023,0.10753,0.20528,1.6325
1.1144,0.14663,0.18573,1.6031
1.3294,0.17595,0.20528,1.4663
1.1046,0.1564,0.22483,1.5054
1.085,0.14663,0.21505,1.3099
1.5543,0.14663,0.22483,1.2512
1.6618,0.14663,0.22483,1.3196
1.6325,0.13685,0.22483,1.2023
1.6129,0.12708,0.20528,1.1535
1.7107,0.12708,0.1955,1.2219
1.564,0.14663,0.22483,1.2317
1.5152,0.14663,0.2346,1.1437
1.5347,0.14663,0.20528,1.3099
1.6325,0.13685,0.20528,1.2708
1.7986,0.14663,0.20528,1.2708
1.7498,0.14663,0.21505,1.173
1.74,0.14663,0.1955,0.99707
1.5738,0.1564,0.22483,1.0362
1.5445,0.1564,0.21505,1.0166
1.3978,0.1564,0.18573,0.88954
1.8084,0.1564,0.18573,0.86999
1.7107,0.1564,0.1564,0.73314
1.5738,0.1564,0.1955,0.71359
1.5347,0.16618,0.17595,0.70381
1.5738,0.17595,0.20528,0.62561
1.6031,0.20528,0.22483,0.56696
1.5249,0.20528,0.24438,0.52786
1.5152,0.22483,0.2346,0.54741
1.3783,0.2346,0.2346,0.49853
1.4174,0.25415,0.2346,0.55718
1.2708,0.22483,0.21505,0.51808
1.1144,0.25415,0.20528,0.46921
0.98729,0.26393,0.18573,0.47898
0.85044,0.24438,0.18573,0.49853
0.81134,0.2737,0.1955,0.52786
0.76246,0.25415,0.17595,0.47898
0.68426,0.24438,0.1564,0.48876
0.55718,0.2346,0.14663,0.52786
0.53763,0.29326,0.18573,0.61584
0.50831,0.30303,0.18573,0.61584
0.47898,0.28348,0.18573,0.63539
0.40078,0.30303,0.1955,0.56696
0.33236,0.29326,0.21505,0.62561
0.28348,0.26393,0.21505,0.66471
0.30303,0.2737,0.22483,0.72336
0.26393,0.2737,0.24438,0.66471
0.21505,0.31281,0.2737,0.70381
0.1955,0.32258,0.2737,0.69404
0.24438,0.36168,0.2737,0.67449
0.21505,0.33236,0.2346,0.62561
0.18573,0.34213,0.21505,0.69404
0.21505,0.37146,0.20528,0.74291
0.26393,0.39101,0.18573,0.64516
0.25415,0.35191,0.18573,0.58651
0.24438,0.35191,0.20528,0.65494
0.30303,0.36168,0.22483,0.69404
0.32258,0.34213,0.20528,0.83089
0.31281,0.38123,0.20528,0.81134
0.33236,0.37146,0.1955,0.76246
0.37146,0.39101,0.1955,0.75269
0.35191,0.40078,0.1955,0.70381
0.35191,0.41056,0.22483,0.64516
0.43011,0.40078,0.21505,0.71359
0.40078,0.39101,0.24438,0.69404
0.40078,0.38123,0.2346,0.63539
0.38123,0.41056,0.2346,0.73314
0.34213,0.47898,0.26393,0.72336
0.32258,0.44966,0.26393,0.85044
0.32258,0.52786,0.2346,0.80156
0.36168,0.47898,0.26393,0.75269
0.41056,0.48876,0.25415,0.76246
0.38123,0.49853,0.2346,0.73314
0.39101,0.48876,0.21505,0.62561
0.37146,0.43988,0.20528,0.61584
0.40078,0.41056,0.20528,0.66471
0.44966,0.37146,0.21505,0.57674
0.42033,0.40078,0.24438,0.52786
0.43011,0.36168,0.22483,0.56696
0.43011,0.35191,0.22483,0.63539
0.41056,0.34213,0.22483,0.58651
0.43988,0.33236,0.21505,0.59629
0.44966,0.32258,0.20528,0.61584
0.43011,0.31281,0.22483,0.57674
0.43011,0.28348,0.21505,0.55718
0.43988,0.29326,0.22483,0.54741
0.44966,0.29326,0.22483,0.65494
0.42033,0.2737,0.22483,0.69404
0.46921,0.25415,0.2346,0.69404
0.43988,0.25415,0.21505,0.64516
0.51808,0.25415,0.25415,0.60606
0.51808,0.22483,0.25415,0.59629
0.51808,0.20528,0.2346,0.53763
0.55718,0.1955,0.2346,0.61584
0.49853,0.20528,0.2346,0.66471
0.47898,0.18573,0.2346,0.59629
0.45943,0.16618,0.21505,0.56696
0.46921,0.14663,0.20528,0.50831
0.47898,0.13685,0.24438,0.54741
0.51808,0.13685,0.24438,0.51808
0.53763,0.1564,0.2346,0.45943
0.56696,0.14663,0.22483,0.42033
0.55718,0.12708,0.22483,0.40078
0.49853,0.12708,0.20528,0.40078
0.51808,0.13685,0.22483,0.40078
0.51808,0.12708,0.24438,0.34213
0.49853,0.1173,0.25415,0.32258
0.47898,0.10753,0.26393,0.41056
0.49853,0.12708,0.29326,0.34213
0.52786,0.12708,0.32258,0.39101
0.53763,0.1173,0.34213,0.41056
0.51808,0.12708,0.33236,0.43988
0.46921,0.13685,0.35191,0.38123
0.48876,0.13685,0.45943,0.47898
0.49853,0.12708,0.41056,0.45943
0.48876,0.14663,0.36168,0.41056
0.47898,0.17595,0.44966,0.36168
0.47898,0.17595,0.42033,0.31281
0.49853,0.16618,0.43011,0.30303
0.59629,0.1564,0.49853,0.34213
0.55718,0.16618,0.45943,0.37146
0.48876,0.18573,0.48876,0.32258
0.43988,0.17595,0.45943,0.28348
0.43988,0.17595,0.49853,0.25415
0.43988,0.18573,0.50831,0.2346
0.57674,0.18573,0.46921,0.22483
0.51808,0.17595,0.43011,0.1955
0.55718,0.22483,0.43988,0.21505
0.56696,0.21505,0.42033,0.21505
0.58651,0.22483,0.42033,0.1955
0.54741,0.21505,0.43011,0.17595
0.50831,0.25415,0.42033,0.16618
0.45943,0.25415,0.41056,0.16618
0.41056,0.24438,0.41056,0.16618
0.40078,0.25415,0.49853,0.14663
0.51808,0.25415,0.49853,0.13685
0.48876,0.25415,0.56696,0.13685
0.46921,0.24438,0.58651,0.1564
0.44966,0.24438,0.54741,0.13685
0.43988,0.25415,0.52786,0.12708
0.42033,0.26393,0.47898,0.12708
0.39101,0.26393,0.44966,0.1173
0.38123,0.22483,0.43988,0.10753
0.40078,0.22483,0.47898,0.087977
0.41056,0.22483,0.42033,0.078201
0.43988,0.21505,0.40078,0.078201
0.47898,0.1955,0.42033,0.1173
0.47898,0.20528,0.52786,0.10753
0.42033,0.22483,0.53763,0.087977
0.41056,0.22483,0.54741,0.068426
0.35191,0.20528,0.55718,0.058651
0.37146,0.20528,0.53763,0.058651
0.37146,0.18573,0.55718,0.078201
0.43988,0.22483,0.55718,0.1173
0.38123,0.1955,0.50831,0.1173
0.38123,0.17595,0.46921,0.1173
0.34213,0.16618,0.44966,0.10753
0.36168,0.17595,0.40078,0.1173
0.34213,0.18573,0.45943,0.1173
0.35191,0.21505,0.45943,0.13685
0.36168,0.22483,0.58651,0.12708
0.39101,0.24438,0.57674,0.12708
0.34213,0.22483,0.53763,0.1173
0.32258,0.2346,0.57674,0.10753
0.33236,0.24438,0.56696,0.097752
0.39101,0.21505,0.58651,0.097752
0.40078,0.20528,0.58651,0.087977
0.37146,0.1955,0.52786,0.078201
0.33236,0.1955,0.56696,0.097752
0.29326,0.1955,0.61584,0.14663
0.26393,0.1955,0.61584,0.13685
0.30303,0.18573,0.56696,0.13685
0.28348,0.16618,0.53763,0.12708
0.31281,0.16618,0.50831,0.1173
0.26393,0.1564,0.55718,0.1173
0.24438,0.1564,0.51808,0.097752
0.2346,0.14663,0.46921,0.078201
0.2346,0.1564,0.51808,0.087977
0.29326,0.17595,0.47898,0.087977
0.36168,0.1564,0.54741,0.087977
0.43011,0.17595,0.49853,0.087977
0.44966,0.18573,0.43988,0.097752
0.47898,0.18573,0.43011,0.087977
0.48876,0.16618,0.44966,0.087977
0.48876,0.18573,0.49853,0.078201
0.48876,0.18573,0.44966,0.068426
0.43988,0.17595,0.42033,0.068426
0.43011,0.17595,0.43988,0.078201
0.43011,0.16618,0.45943,0.068426
0.36168,0.14663,0.43011,0.058651
0.31281,0.14663,0.37146,0.048876
0.31281,0.1564,0.35191,0.048876
0.34213,0.14663,0.34213,0.058651
0.33236,0.1564,0.30303,0.068426
0.30303,0.16618,0.28348,0.097752
0.29326,0.1564,0.25415,0.087977
0.28348,0.13685,0.25415,0.087977
0.32258,0.13685,0.22483,0.078201
0.31281,0.1564,0.21505,0.068426
0.30303,0.13685,0.22483,0.068426
0.30303,0.12708,0.25415,0.078201
0.26393,0.1173,0.28348,0.068426
0.2346,0.1173,0.24438,0.058651
0.26393,0.13685,0.26393,0.048876
0.28348,0.13685,0.24438,0.048876
0.30303,0.12708,0.24438,0.039101
0.25415,0.13685,0.21505,0.039101
0.22483,0.12708,0.22483,0.029326
0.1955,0.13685,0.22483,0.039101
0.16618,0.1564,0.21505,0.039101
0.14663,0.13685,0.21505,0.039101
0.1564,0.1564,0.21505,0.039101
0.1564,0.14663,0.20528,0.029326
0.16618,0.13685,0.20528,0.029326
0.1564,0.14663,0.17595,0.01955
0.17595,0.14663,0.18573,0.039101
0.16618,0.1564,0.21505,0.039101
0.1564,0.14663,0.24438,0.039101
0.18573,0.1564,0.25415,0.048876
0.18573,0.13685,0.2346,0.029326
0.17595,0.13685,0.24438,0.029326
0.17595,0.12708,0.25415,0.029326
0.16618,0.12708,0.24438,0.029326
0.13685,0.12708,0.21505,0.029326
0.16618,0.13685,0.21505,0.039101
0.1955,0.16618,0.16618,0.039101
0.20528,0.16618,0.1564,0.039101
0.21505,0.16618,0.1564,0.029326
0.20528,0.1564,0.14663,0.048876
0.18573,0.1564,0.14663,0.068426
0.16618,0.16618,0.12708,0.068426
0.18573,0.14663,0.097752,0.078201
0.16618,0.1564,0.068426,0.068426
0.1564,0.1564,0.087977,0.078201
0.1564,0.14663,0.068426,0.087977
0.13685,0.1564,0.058651,0.087977
0.14663,0.16618,0.039101,0.078201
0.16618,0.13685,0.048876,0.10753
0.14663,0.13685,0.048876,0.10753
0.13685,0.13685,0.039101,0.097752
0.1173,0.13685,0,0.087977
0.1173,0.1173,0.0097752,0.078201
0.097752,0.13685,0.0097752,0.078201
0.1173,0.13685,0,0.097752
0.13685,0.12708,0,0.087977
0.12708,0.12708,0,0.078201
0.10753,0.13685,0.039101,0.097752
0.097752,0.12708,0.029326,0.087977
0.12708,0.12708,0,0.078201
0.12708,0.13685,0.048876,0.087977
0.13685,0.13685,0.039101,0.097752
0.10753,0.13685,0.048876,0.10753
0.097752,0.1173,0.039101,0.10753
0.087977,0.12708,0.048876,0.097752
0.13685,0.13685,0.048876,0.087977
0.13685,0.13685,0.068426,0.078201
0.12708,0.12708,0.078201,0.087977
0.12708,0.13685,0.078201,0.1173
0.12708,0.14663,0.087977,0.10753
0.10753,0.13685,0.078201,0.097752
0.13685,0.1564,0.078201,0.087977
0.12708,0.1564,0.058651,0.087977
0.1173,0.13685,0.048876,0.097752
0.12708,0.13685,0.039101,0.087977
0.1173,0.12708,0.01955,0.097752
0.13685,0.1173,0.01955,0.1173
0.17595,0.13685,0.0097752,0.10753
0.16618,0.13685,0,0.097752
0.14663,0.13685,0,0.087977
0.14663,0.12708,0,0.087977
0.1564,0.13685,0,0.097752
0.14663,0.12708,0,0.087977
0.14663,0.1173,0,0.097752
0.13685,0.12708,0,0.10753
0.097752,0.13685,0,0.1173
0.078201,0.14663,0,0.1173
0.078201,0.13685,0,0.1173
0.068426,0.13685,0,0.10753
0.068426,0.12708,0,0.097752
0.058651,0.12708,0,0.087977
0.068426,0.14663,0,0.078201
0.078201,0.14663,0,0.068426
0.087977,0.13685,0,0.1173
0.097752,0.14663,0,0.097752
0.097752,0.12708,0,0.097752
0.1173,0.1173,0,0.078201
0.12708,0.1173,0.0097752,0.078201
0.097752,0.1173,0,0.078201
0.14663,0.10753,0,0.078201
0.1564,0.12708,0.058651,0.068426
0.1564,0.1173,0.029326,0.068426
0.18573,0.1173,0.029326,0.068426
0.1955,0.14663,0.078201,0.087977
0.1955,0.12708,0.097752,0.078201
0.18573,0.1173,0.10753,0.068426
0.16618,0.10753,0.078201,0.078201
0.1564,0.097752,0.097752,0.097752
0.14663,0.097752,0.078201,0.097752
0.16618,0.097752,0.048876,0.078201
0.1955,0.097752,0.048876,0.097752
0.20528,0.097752,0.078201,0.10753
0.20528,0.097752,0.058651,0.087977
0.24438,0.097752,0.058651,0.097752
0.20528,0.1173,0.087977,0.097752
0.1955,0.1173,0.097752,0.10753
0.16618,0.10753,0.087977,0.10753
0.21505,0.1173,0.097752,0.097752
0.18573,0.1173,0.1564,0.087977
0.16618,0.10753,0.1955,0.087977
0.14663,0.10753,0.2346,0.087977
0.18573,0.10753,0.2346,0.078201
0.18573,0.10753,0.21505,0.078201
0.17595,0.1173,0.26393,0.087977
0.1564,0.1173,0.29326,0.078201
0.13685,0.12708,0.28348,0.078201
0.12708,0.1173,0.26393,0.068426
0.12708,0.12708,0.24438,0.078201
0.12708,0.12708,0.2737,0.078201
0.1173,0.13685,0.24438,0.078201
0.10753,0.12708,0.22483,0.078201
0.10753,0.1173,0.25415,0.087977
0.12708,0.1173,0.31281,0.087977
0.10753,0.1173,0.29326,0.097752
0.097752,0.1173,0.28348,0.097752
0.078201,0.097752,0.28348,0.087977
0.068426,0.1173,0.2737,0.078201
0.068426,0.10753,0.29326,0.1173
0.087977,0.097752,0.2737,0.17595
0.078201,0.097752,0.2737,0.16618
0.087977,0.10753,0.32258,0.1955
0.097752,0.10753,0.35191,0.17595
0.078201,0.1173,0.30303,0.14663
0.087977,0.10753,0.31281,0.13685
0.087977,0.1173,0.33236,0.12708
0.087977,0.1173,0.35191,0.13685
0.087977,0.10753,0.33236,0.1564
0.087977,0.10753,0.30303,0.16618
0.087977,0.10753,0.31281,0.1564
0.078201,0.097752,0.29326,0.1564
0.078201,0.10753,0.29326,0.20528
0.068426,0.10753,0.2737,0.29326
0.068426,0.1173,0.29326,0.38123
0.087977,0.10753,0.29326,0.41056
0.087977,0.1173,0.30303,0.40078
0.087977,0.10753,0.29326,0.48876
0.078201,0.1173,0.28348,0.49853
0.078201,0.13685,0.26393,0.57674
0.068426,0.12708,0.28348,0.60606
0.068426,0.1173,0.2737,0.49853
0.078201,0.1173,0.25415,0.52786
0.068426,0.1173,0.22483,0.53763
0.068426,0.1173,0.21505,0.67449
0.058651,0.12708,0.21505,0.69404
0.058651,0.1173,0.24438,0.59629
0.058651,0.1173,0.2737,0.64516
0.058651,0.1173,0.2737,0.81134
0.058651,0.1173,0.30303,0.77224
0.058651,0.1173,0.30303,1.0362
0.048876,0.1173,0.26393,1.1241
0.048876,0.12708,0.29326,1.4761
0.048876,0.1173,0.28348,1.5152
0.078201,0.1173,0.2737,1.4467
0.058651,0.1173,0.29326,1.5836
0.058651,0.12708,0.28348,1.8768
0.058651,0.12708,0.30303,2.043
0.048876,0.13685,0.28348,1.9355
0.058651,0.12708,0.30303,1.7889
0.068426,0.13685,0.28348,1.828
0.078201,0.12708,0.2737,1.7791
0.068426,0.1173,0.30303,1.7302
0.068426,0.12708,0.30303,1.6031
0.068426,0.12708,0.28348,1.7791
0.058651,0.1173,0.28348,1.8671
0.048876,0.1173,0.2737,1.9062
0.058651,0.1173,0.30303,1.7107
0.058651,0.12708,0.31281,1.6813
0.058651,0.1173,0.30303,1.8573
0.058651,0.1173,0.31281,1.9062
0.048876,0.10753,0.29326,2.2092
0.039101,0.097752,0.29326,2.1994
0.029326,0.1173,0.28348,2.0919
0.029326,0.12708,0.26393,1.9257
0.039101,0.12708,0.25415,1.955
0.058651,0.1173,0.26393,1.7595
0.058651,0.12708,0.26393,1.6325
0.048876,0.13685,0.26393,1.5445
0.048876,0.13685,0.26393,1.5347
0.068426,0.13685,0.25415,1.5054
0.087977,0.1564,0.30303,1.3392
0.087977,0.18573,0.32258,1.1926
0.12708,0.17595,0.2737,1.2219
0.13685,0.17595,0.21505,1.1241
0.16618,0.17595,0.22483,1.2708
0.21505,0.17595,0.26393,1.2414
0.22483,0.18573,0.22483,1.3001
0.24438,0.17595,0.25415,1.1828
0.30303,0.17595,0.25415,1.1339
0.34213,0.14663,0.24438,1.0166
0.43988,0.16618,0.20528,1.1046
0.52786,0.16618,0.24438,1.1046
0.52786,0.16618,0.2737,1.0264
0.46921,0.17595,0.24438,0.90909
0.47898,0.18573,0.24438,0.81134
0.56696,0.18573,0.26393,0.75269
0.63539,0.16618,0.26393,0.73314
0.61584,0.1564,0.28348,0.64516
0.62561,0.1564,0.26393,0.57674
0.86022,0.14663,0.28348,0.48876
0.81134,0.14663,0.25415,0.40078
0.83089,0.1564,0.2346,0.41056
0.88954,0.14663,0.21505,0.37146
1.0655,0.13685,0.22483,0.34213
1.085,0.13685,0.21505,0.31281
1.0948,0.1564,0.21505,0.35191
0.95797,0.1564,0.20528,0.45943
1.0753,0.1564,0.21505,0.51808
1.1339,0.14663,0.22483,0.59629
1.1046,0.17595,0.22483,0.59629
1.0655,0.16618,0.20528,0.56696
1.0166,0.17595,0.21505,0.46921
1.173,0.1564,0.20528,0.40078
1.652,0.14663,0.20528,0.41056
1.6813,0.1564,0.20528,0.40078
1.8671,0.17595,0.20528,0.42033
1.7791,0.1564,0.20528,0.42033
1.8182,0.16618,0.24438,0.44966
1.6813,0.1564,0.24438,0.43988
1.74,0.16618,0.25415,0.46921
1.8182,0.16618,0.28348,0.42033
1.6618,0.14663,0.29326,0.38123
1.7986,0.14663,0.29326,0.45943
1.7107,0.17595,0.28348,0.44966
1.6422,0.17595,0.26393,0.42033
1.7107,0.17595,0.2346,0.40078
1.7302,0.17595,0.22483,0.44966
1.5347,0.18573,0.22483,0.43011
1.4663,0.18573,0.24438,0.40078
1.5836,0.20528,0.22483,0.40078
1.5347,0.1955,0.22483,0.39101
1.3685,0.1955,0.24438,0.39101
1.5738,0.1955,0.25415,0.34213
1.437,0.20528,0.29326,0.31281
1.3587,0.1955,0.26393,0.34213
1.2805,0.1955,0.26393,0.35191
1.4761,0.21505,0.28348,0.38123
1.3881,0.21505,0.25415,0.49853
1.3099,0.21505,0.25415,0.46921
1.2708,0.2346,0.2737,0.47898
1.1632,0.25415,0.26393,0.49853
1.2317,0.26393,0.24438,0.48876
1.3392,0.28348,0.24438,0.49853
1.3099,0.28348,0.26393,0.49853
1.1632,0.32258,0.30303,0.51808
1.349,0.32258,0.29326,0.45943
1.3978,0.31281,0.29326,0.49853
1.3196,0.29326,0.29326,0.48876
1.261,0.31281,0.2737,0.49853
1.2805,0.28348,0.24438,0.52786
1.2317,0.31281,0.24438,0.49853
1.0557,0.31281,0.25415,0.46921
0.93842,0.29326,0.22483,0.43988
0.85044,0.33236,0.2346,0.41056
0.70381,0.32258,0.24438,0.48876
0.59629,0.30303,0.24438,0.53763
0.51808,0.32258,0.22483,0.45943
0.46921,0.30303,0.22483,0.44966
0.45943,0.29326,0.25415,0.42033
0.42033,0.33236,0.25415,0.43011
0.39101,0.33236,0.26393,0.43988
0.36168,0.32258,0.26393,0.41056
0.35191,0.30303,0.26393,0.43988
0.36168,0.33236,0.2346,0.47898
0.32258,0.30303,0.21505,0.45943
0.32258,0.31281,0.20528,0.45943
0.34213,0.42033,0.20528,0.45943
0.34213,0.38123,0.1955,0.47898
0.41056,0.36168,0.1955,0.47898
0.38123,0.38123,0.18573,0.43011
0.36168,0.41056,0.18573,0.47898
0.33236,0.42033,0.1955,0.60606
0.37146,0.40078,0.18573,0.63539
0.35191,0.42033,0.17595,0.55718
0.34213,0.39101,0.1955,0.51808
0.32258,0.42033,0.21505,0.50831
0.30303,0.47898,0.25415,0.45943
0.32258,0.47898,0.26393,0.43988
0.32258,0.47898,0.26393,0.43011
0.32258,0.49853,0.24438,0.46921
0.37146,0.57674,0.24438,0.44966
0.36168,0.55718,0.2346,0.43011
0.34213,0.61584,0.2346,0.52786
0.35191,0.58651,0.22483,0.52786
0.35191,0.53763,0.21505,0.58651
0.34213,0.52786,0.2737,0.62561
0.38123,0.50831,0.2737,0.59629
0.39101,0.51808,0.28348,0.55718
0.40078,0.47898,0.28348,0.58651
0.43011,0.42033,0.25415,0.60606
0.40078,0.43011,0.21505,0.54741
0.37146,0.41056,0.22483,0.55718
0.42033,0.44966,0.2346,0.52786
0.46921,0.42033,0.25415,0.48876
0.41056,0.40078,0.24438,0.45943
0.42033,0.39101,0.22483,0.47898
0.43011,0.37146,0.2346,0.46921
0.41056,0.36168,0.22483,0.47898
0.48876,0.33236,0.22483,0.43988
0.47898,0.31281,0.22483,0.41056
0.44966,0.32258,0.21505,0.39101
0.45943,0.30303,0.2346,0.35191
0.52786,0.34213,0.24438,0.36168
0.55718,0.33236,0.24438,0.43011
0.50831,0.29326,0.24438,0.41056
0.44966,0.26393,0.24438,0.37146
0.46921,0.2346,0.25415,0.31281
0.43988,0.2346,0.26393,0.30303
0.45943,0.21505,0.24438,0.28348
0.45943,0.18573,0.18573,0.29326
0.48876,0.17595,0.20528,0.29326
0.52786,0.16618,0.20528,0.25415
0.45943,0.16618,0.1955,0.25415
0.51808,0.1564,0.20528,0.22483
0.49853,0.1564,0.22483,0.22483
0.47898,0.14663,0.24438,0.21505
0.45943,0.14663,0.24438,0.2346
0.43988,0.12708,0.25415,0.1955
0.37146,0.1173,0.26393,0.21505
0.37146,0.10753,0.26393,0.24438
0.36168,0.10753,0.26393,0.22483
0.38123,0.10753,0.28348,0.24438
0.37146,0.10753,0.31281,0.22483
0.43988,0.10753,0.32258,0.20528
0.41056,0.10753,0.32258,0.18573
0.48876,0.10753,0.33236,0.1564
0.52786,0.10753,0.32258,0.12708
0.51808,0.1173,0.33236,0.10753
0.51808,0.14663,0.34213,0.097752
0.46921,0.14663,0.36168,0.10753
0.43988,0.1564,0.33236,0.087977
0.49853,0.1564,0.34213,0.078201
0.46921,0.13685,0.38123,0.078201
0.44966,0.13685,0.38123,0.078201
0.43988,0.13685,0.37146,0.078201
0.44966,0.1564,0.34213,0.068426
0.40078,0.1564,0.32258,0.058651
0.37146,0.14663,0.34213,0.087977
0.35191,0.17595,0.32258,0.10753
0.33236,0.16618,0.33236,0.097752
0.33236,0.1564,0.32258,0.087977
0.34213,0.1564,0.37146,0.068426
0.38123,0.1564,0.39101,0.068426
0.40078,0.16618,0.49853,0.068426
0.42033,0.1564,0.44966,0.068426
0.37146,0.17595,0.45943,0.058651
0.40078,0.16618,0.43011,0.048876
0.35191,0.1955,0.41056,0.039101
0.34213,0.18573,0.44966,0.029326
0.37146,0.17595,0.44966,0.029326
0.33236,0.1955,0.47898,0.029326
0.32258,0.18573,0.47898,0.039101
0.34213,0.17595,0.45943,0.029326
0.31281,0.1955,0.42033,0.029326
0.31281,0.18573,0.41056,0.01955
0.30303,0.1955,0.48876,0.01955
0.30303,0.17595,0.45943,0.029326
0.28348,0.18573,0.42033,0.039101
0.28348,0.17595,0.35191,0.039101
0.31281,0.18573,0.32258,0.039101
0.31281,0.21505,0.35191,0.029326
0.28348,0.1955,0.38123,0.01955
0.29326,0.1955,0.41056,0.01955
0.33236,0.1955,0.40078,0.0097752
0.31281,0.1955,0.40078,0.0097752
0.32258,0.18573,0.49853,0.0097752
0.34213,0.22483,0.47898,0.0097752
0.36168,0.22483,0.49853,0.0097752
0.33236,0.21505,0.49853,0
0.33236,0.21505,0.57674,0
0.30303,0.25415,0.62561,0.0097752
0.28348,0.2346,0.68426,0.0097752
0.36168,0.21505,0.64516,0.0097752
0.35191,0.21505,0.59629,0.0097752
0.33236,0.21505,0.57674,0.0097752
0.29326,0.2346,0.58651,0
0.29326,0.24438,0.58651,0
0.28348,0.26393,0.53763,0
0.26393,0.2346,0.49853,0
0.28348,0.25415,0.47898,0
0.28348,0.2737,0.44966,0
0.25415,0.24438,0.48876,0.058651
0.29326,0.25415,0.45943,0.0097752
0.29326,0.2737,0.43988,0
0.40078,0.26393,0.41056,0
0.38123,0.28348,0.40078,0
0.36168,0.26393,0.41056,0
0.38123,0.2346,0.47898,0
0.37146,0.2346,0.48876,0
0.43011,0.2346,0.46921,0
0.36168,0.22483,0.47898,0
0.42033,0.21505,0.57674,0
0.38123,0.24438,0.51808,0
0.35191,0.2346,0.46921,0
0.33236,0.2346,0.42033,0
0.34213,0.22483,0.40078,0
0.35191,0.21505,0.38123,0
0.31281,0.1955,0.34213,0
0.29326,0.20528,0.33236,0
0.26393,0.20528,0.32258,0
0.24438,0.1955,0.29326,0
0.25415,0.18573,0.28348,0
0.26393,0.1955,0.28348,0
0.24438,0.1955,0.25415,0
0.2346,0.20528,0.25415,0
0.29326,0.21505,0.22483,0
0.38123,0.1955,0.22483,0
0.33236,0.1955,0.22483,0
0.2737,0.20528,0.22483,0
0.2737,0.22483,0.18573,0
0.25415,0.1955,0.22483,0
0.2346,0.22483,0.22483,0
0.24438,0.21505,0.21505,0.0097752
0.2737,0.20528,0.18573,0.0097752
0.26393,0.20528,0.18573,0.0097752
0.25415,0.21505,0.18573,0.0097752
0.26393,0.22483,0.18573,0.0097752
0.22483,0.20528,0.17595,0.01955
0.22483,0.18573,0.18573,0.039101
0.22483,0.1955,0.17595,0.058651
0.1955,0.1955,0.17595,0.058651
0.20528,0.18573,0.17595,0.058651
0.20528,0.16618,0.16618,0.048876
0.18573,0.17595,0.14663,0.048876
0.16618,0.1564,0.13685,0.039101
0.17595,0.14663,0.1564,0.048876
0.17595,0.1564,0.14663,0.078201
0.18573,0.16618,0.12708,0.078201
0.18573,0.1564,0.12708,0.078201
0.16618,0.1564,0.10753,0.068426
0.14663,0.1955,0.097752,0.068426
0.1173,0.20528,0.087977,0.068426
0.1173,0.2346,0.068426,0.068426
0.12708,0.20528,0.048876,0.068426
0.13685,0.18573,0.039101,0.058651
0.12708,0.18573,0.029326,0.048876
0.13685,0.16618,0.01955,0.048876
0.12708,0.16618,0.0097752,0.058651
0.13685,0.16618,0,0.048876
0.14663,0.16618,0,0.039101
0.12708,0.1564,0,0.029326
0.13685,0.18573,0,0.029326
0.1564,0.18573,0,0.029326
0.16618,0.1955,0,0.01955
0.14663,0.20528,0,0.039101
0.1564,0.21505,0,0.029326
0.18573,0.1955,0,0.029326
0.16618,0.20528,0,0.029326
0.14663,0.20528,0,0.029326
0.13685,0.21505,0,0.01955
0.1564,0.18573,0,0.029326
0.14663,0.1955,0,0.029326
0.14663,0.21505,0,0.039101
0.13685,0.21505,0,0.039101
0.13685,0.26393,0,0.039101
0.1564,0.24438,0,0.029326
0.1564,0.24438,0,0.029326
0.14663,0.2346,0,0.029326
0.13685,0.26393,0,0.039101
0.13685,0.26393,0,0.039101
0.12708,0.24438,0,0.039101
0.12708,0.24438,0,0.048876
0.12708,0.21505,0,0.048876
0.1173,0.20528,0,0.048876
0.1173,0.25415,0,0.048876
0.097752,0.22483,0,0.048876
0.087977,0.25415,0,0.039101
0.078201,0.28348,0,0.048876
0.14663,0.2737,0,0.039101
0.13685,0.25415,0,0.039101
0.12708,0.24438,0,0.029326
0.1173,0.24438,0,0.029326
0.1173,0.24438,0,0.029326
0.1173,0.22483,0,0.029326
0.13685,0.21505,0,0.01955
0.12708,0.20528,0,0.01955
0.1173,0.22483,0,0.01955
0.13685,0.21505,0,0.01955
0.1564,0.1955,0,0.029326
0.12708,0.18573,0,0.039101
0.1173,0.17595,0,0.039101
0.12708,0.16618,0,0.029326
0.12708,0.16618,0,0.029326
0.1173,0.17595,0,0.029326
0.1173,0.18573,0,0.029326
0.12708,0.18573,0,0.01955
0.14663,0.16618,0,0.01955
0.14663,0.16618,0,0.01955
0.14663,0.16618,0,0.01955
0.13685,0.18573,0,0.01955
0.13685,0.1955,0,0.01955
0.10753,0.18573,0,0.0097752
0.087977,0.20528,0,0.0097752
0.097752,0.20528,0,0.0097752
0.10753,0.1955,0,0.01955
0.12708,0.18573,0,0.0097752
0.1173,0.1955,0,0.0097752
0.12708,0.18573,0,0.0097752
0.12708,0.17595,0,0.01955
0.10753,0.16618,0,0.01955
0.12708,0.1955,0,0.029326
0.12708,0.16618,0,0.01955
0.14663,0.14663,0,0.029326
0.12708,0.16618,0,0.029326
0.12708,0.14663,0,0.01955
0.13685,0.14663,0,0.029326
0.12708,0.13685,0,0.029326
0.13685,0.14663,0,0.029326
0.12708,0.14663,0,0.048876
0.1173,0.1564,0.0097752,0.058651
0.12708,0.14663,0.0097752,0.048876
0.12708,0.13685,0,0.039101
0.13685,0.14663,0,0.039101
0.12708,0.14663,0,0.048876
0.12708,0.13685,0,0.039101
0.1173,0.12708,0,0.048876
0.1173,0.14663,0,0.058651
0.10753,0.13685,0,0.058651
0.097752,0.13685,0,0.048876
0.087977,0.12708,0,0.039101
0.087977,0.14663,0,0.039101
0.097752,0.12708,0,0.039101
0.087977,0.14663,0,0.01955
0.10753,0.14663,0,0.01955
0.10753,0.14663,0.01955,0.048876
0.10753,0.1564,0.0097752,0.048876
0.10753,0.14663,0.0097752,0.039101
0.12708,0.14663,0.0097752,0.039101
0.1173,0.13685,0.0097752,0.029326
0.1173,0.12708,0.0097752,0.039101
0.12708,0.12708,0,0.058651
0.1173,0.13685,0,0.048876
0.10753,0.12708,0,0.058651
0.097752,0.1173,0,0.068426
0.087977,0.1173,0,0.068426
0.087977,0.1173,0,0.078201
0.097752,0.10753,0,0.087977
0.087977,0.087977,0,0.1173
0.078201,0.068426,0,0.12708
0.058651,0.087977,0,0.1173
0.068426,0.087977,0,0.1173
0.068426,0.097752,0.0097752,0.14663
0.087977,0.1173,0.01955,0.16618
0.10753,0.1173,0.01955,0.20528
0.097752,0.1173,0.01955,0.20528
0.10753,0.1173,0.029326,0.24438
0.12708,0.078201,0.01955,0.26393
0.10753,0.078201,0.0097752,0.28348
0.1173,0.10753,0.029326,0.26393
0.097752,0.10753,0.029326,0.2737
0.097752,0.1173,0.039101,0.31281
0.087977,0.1173,0.048876,0.36168
0.097752,0.1173,0.039101,0.36168
0.087977,0.12708,0.058651,0.35191
0.078201,0.1173,0.068426,0.34213
0.078201,0.12708,0.068426,0.32258
0.068426,0.14663,0.087977,0.49853
0.087977,0.1564,0.097752,0.49853
0.068426,0.1564,0.12708,0.57674
0.058651,0.1173,0.10753,0.63539
0.068426,0.1173,0.17595,0.66471
0.068426,0.13685,0.16618,0.59629
0.10753,0.1564,0.17595,0.59629
0.10753,0.14663,0.18573,0.68426
0.097752,0.13685,0.21505,0.67449
0.078201,0.13685,0.21505,0.77224
0.078201,0.1173,0.24438,0.92864
0.078201,0.12708,0.26393,0.93842
0.078201,0.1173,0.2737,0.96774
0.068426,0.068426,0.25415,1.0362
0.058651,0.1173,0.21505,1.1144
0.087977,0.10753,0.1955,1.3196
0.097752,0.1173,0.20528,1.4174
0.087977,0.10753,0.21505,1.5152
0.087977,0.087977,0.20528,1.828
0.087977,0.087977,0.18573,1.7302
0.078201,0.068426,0.1955,1.7791
0.068426,0.078201,0.2346,1.7693
0.068426,0.068426,0.2346,1.7009
0.068426,0.087977,0.25415,1.7302
0.058651,0.078201,0.2346,2.2385
0.058651,0.068426,0.2346,2.2581
0.048876,0.097752,0.2346,2.131
0.048876,0.058651,0.20528,2.0332
0.068426,0.048876,0.20528,1.9941
0.068426,0.039101,0.25415,1.9355
0.068426,0.029326,0.24438,1.8475
0.048876,0.039101,0.26393,1.6618
0.058651,0.029326,0.28348,1.6813
0.048876,0.01955,0.24438,1.7595
0.048876,0.048876,0.25415,1.8475
0.048876,0.058651,0.24438,1.9453
0.048876,0.048876,0.26393,1.8084
0.039101,0.048876,0.24438,1.7791
0.039101,0.048876,0.25415,1.9257
0.039101,0.068426,0.22483,1.955
0.039101,0.068426,0.22483,1.7498
0.039101,0.068426,0.2737,1.6911
0.039101,0.078201,0.26393,1.5347
0.029326,0.048876,0.26393,1.5543
0.029326,0.058651,0.29326,1.4174
0.039101,0.058651,0.29326,1.4076
0.039101,0.078201,0.28348,1.261
0.039101,0.078201,0.28348,1.261
0.029326,0.087977,0.28348,1.2219
0.029326,0.097752,0.29326,1.2512
0.01955,0.087977,0.29326,1.173
0.029326,0.10753,0.2737,1.3099
0.029326,0.13685,0.26393,1.349
0.01955,0.12708,0.2737,1.3001
0.029326,0.13685,0.25415,1.261
0.01955,0.13685,0.28348,1.1437
0.01955,0.1173,0.2737,1.173
0.039101,0.12708,0.28348,1.1632
0.058651,0.12708,0.30303,1.2121
0.078201,0.12708,0.30303,1.173
0.097752,0.12708,0.2737,1.0068
0.16618,0.13685,0.28348,1.0362
0.17595,0.1173,0.2737,0.89932
0.22483,0.1173,0.2737,0.96774
0.2737,0.13685,0.25415,0.82111
0.31281,0.12708,0.26393,0.76246
0.30303,0.1173,0.26393,0.71359
0.31281,0.1173,0.22483,0.71359
0.37146,0.10753,0.21505,0.64516
0.38123,0.12708,0.25415,0.62561
0.45943,0.12708,0.22483,0.62561
0.46921,0.1173,0.25415,0.67449
0.49853,0.13685,0.2346,0.59629
0.56696,0.13685,0.26393,0.58651
0.69404,0.12708,0.22483,0.65494
0.67449,0.12708,0.21505,0.56696
0.66471,0.12708,0.1955,0.58651
0.72336,0.1173,0.18573,0.56696
0.71359,0.10753,0.1955,0.59629
0.64516,0.12708,0.1955,0.52786
0.72336,0.12708,0.1955,0.49853
0.91887,0.1173,0.1955,0.44966
1.2414,0.1173,0.17595,0.44966
1.1632,0.1173,0.17595,0.47898
1.1144,0.12708,0.17595,0.45943
1.085,0.12708,0.17595,0.51808
1.3392,0.14663,0.21505,0.61584
1.5445,0.1564,0.20528,0.59629
1.4174,0.1564,0.20528,0.53763
1.4174,0.13685,0.20528,0.54741
1.4272,0.12708,0.18573,0.55718
1.4858,0.12708,0.21505,0.55718
1.5836,0.12708,0.21505,0.53763
1.5934,0.1173,0.21505,0.53763
1.5152,0.1173,0.1955,0.57674
1.6325,0.048876,0.1955,0.58651
1.5738,0.12708,0.18573,0.59629
1.4565,0.14663,0.17595,0.59629
1.4076,0.13685,0.16618,0.58651
0.50831,1.1437,0.14663,0.18573
1.3881,1.085,1.9746,0.95797
1.0948,0.87977,1.5543,0.81134
0.86999,0.72336,1.2121,0.77224
0.68426,0.63539,0.94819,0.77224
0.54741,0.52786,0.74291,0.70381
0.43011,0.44966,0.58651,0.65494
0.35191,0.38123,0.45943,0.56696
0.28348,0.32258,0.36168,0.63539
0.2346,0.29326,0.28348,0.55718
0.17595,0.26393,0.22483,0.51808
0.1564,0.22483,0.17595,0.48876
0.12708,0.21505,0.13685,0.45943
0.097752,0.22483,0.10753,0.42033
0.13685,0.20528,0.078201,0.44966
0.1173,0.1955,0.068426,0.47898
0.058651,0.17595,0.048876,0.44966
0.048876,0.1564,0.048876,0.42033
0.039101,0.17595,0.029326,0.44966
0.039101,0.20528,0.029326,0.38123
0.039101,0.17595,0.01955,0.39101
0.029326,0.1564,0.0097752,0.36168
0.01955,0.14663,0.0097752,0.35191
0.01955,0.14663,0,0.33236
0.01955,0.16618,0,0.31281
0.01955,0.14663,0,0.33236
0.01955,0.14663,0,0.32258
0.01955,0.17595,0,0.32258
0.01955,0.18573,0,0.31281
0.029326,0.1955,0,0.33236
0.029326,0.18573,0,0.40078
0.029326,0.17595,0,0.38123
0.029326,0.17595,0,0.40078
0.029326,0.1955,0,0.36168
0.01955,0.17595,0,0.32258
0.01955,0.18573,0,0.31281
0.01955,0.18573,0,0.33236
0.0097752,0.17595,0,0.33236
0.0097752,0.18573,0,0.32258
0,0.1955,0,0.32258
0,0.18573,0,0.31281
0.0097752,0.17595,0.0097752,0.32258
0,0.17595,0.0097752,0.40078
0.0097752,0.18573,0.0097752,0.40078
0,0.1173,0.0097752,0.49853
0.0097752,0.1564,0.0097752,0.52786
0.0097752,0.14663,0.029326,0.53763
0.0097752,0.1564,0.039101,0.61584
0.0097752,0.16618,0.048876,0.58651
0.0097752,0.14663,0.058651,0.58651
0.0097752,0.14663,0.068426,0.52786
0.0097752,0.12708,0.048876,0.53763
0.0097752,0.1564,0.039101,0.55718
0.0097752,0.14663,0.068426,0.62561
0.0097752,0.17595,0.078201,0.54741
0.01955,0.1955,0.078201,0.52786
0.01955,0.18573,0.10753,0.51808
0.029326,0.24438,0.10753,0.50831
0.048876,0.1955,0.097752,0.53763
0.058651,0.1955,0.12708,0.51808
0.068426,0.1955,0.13685,0.46921
0.12708,0.18573,0.12708,0.51808
0.16618,0.21505,0.13685,0.61584
0.2737,0.20528,0.14663,0.56696
0.42033,0.18573,0.14663,0.61584
0.40078,0.13685,0.14663,0.57674
0.35191,0.17595,0.14663,0.53763
0.33236,0.14663,0.13685,0.62561
0.35191,0.1564,0.16618,0.58651
0.35191,0.17595,0.16618,0.56696
0.35191,0.14663,0.18573,0.56696
0.41056,0.14663,0.1955,0.53763
0.49853,0.12708,0.18573,0.55718
0.49853,0.14663,0.18573,0.54741
0.67449,0.13685,0.1955,0.49853
0.68426,0.17595,0.21505,0.51808
0.78201,0.18573,0.20528,0.51808
0.74291,0.18573,0.20528,0.45943
0.72336,0.16618,0.20528,0.44966
0.68426,0.16618,0.20528,0.52786
0.84066,0.14663,0.20528,0.49853
0.96774,0.14663,0.21505,0.54741
0.89932,0.17595,0.20528,0.50831
0.81134,0.17595,0.21505,0.44966
0.87977,0.16618,0.21505,0.58651
0.91887,0.097752,0.21505,0.54741
0.95797,0.1173,0.21505,0.50831
1.0068,0.13685,0.21505,0.54741
0.91887,0.1173,0.21505,0.62561
0.99707,0.13685,0.22483,0.57674
1.1339,0.12708,0.26393,0.50831
1.1632,0.13685,0.24438,0.52786
1.2317,0.13685,0.2737,0.59629
1.5152,0.13685,0.24438,0.67449
1.3783,0.13685,0.2346,0.63539
1.3587,0.12708,0.26393,0.67449
1.437,0.13685,0.2346,0.62561
1.3881,0.16618,0.22483,0.59629
1.828,0.1564,0.25415,0.60606
1.7107,0.14663,0.22483,0.59629
1.7693,0.13685,0.20528,0.50831
2.0039,0.12708,0.20528,0.48876
1.9648,0.12708,0.1955,0.54741
2.1212,0.12708,0.20528,0.49853
1.9648,0.12708,0.2346,0.42033
1.9062,0.12708,0.24438,0.40078
1.955,0.13685,0.2346,0.42033
1.828,0.12708,0.2346,0.43011
1.74,0.1173,0.25415,0.43988
1.6618,0.1173,0.26393,0.49853
1.5249,0.14663,0.2346,0.48876
1.4663,0.14663,0.2346,0.51808
1.6227,0.13685,0.22483,0.49853
1.7791,0.12708,0.21505,0.55718
1.8768,0.1173,0.24438,0.59629
1.7009,0.13685,0.24438,0.51808
1.564,0.12708,0.26393,0.45943
1.7204,0.13685,0.26393,0.41056
1.8768,0.1173,0.26393,0.38123
1.9355,0.1173,0.30303,0.38123
1.8182,0.10753,0.25415,0.34213
1.6716,0.1173,0.25415,0.41056
1.652,0.12708,0.24438,0.43988
1.564,0.13685,0.26393,0.42033
1.4858,0.12708,0.25415,0.41056
1.4467,0.12708,0.24438,0.41056
1.3099,0.1564,0.24438,0.42033
1.2414,0.1564,0.25415,0.35191
1.3196,0.17595,0.24438,0.32258
1.2903,0.17595,0.25415,0.31281
1.2414,0.16618,0.24438,0.29326
1.1437,0.16618,0.26393,0.2737
1.0948,0.14663,0.2737,0.2346
1.0948,0.16618,0.25415,0.2346
0.98729,0.18573,0.22483,0.24438
1.0068,0.1955,0.20528,0.22483
0.98729,0.1955,0.20528,0.1564
0.86999,0.16618,0.18573,0.1564
0.74291,0.1564,0.18573,0.16618
0.66471,0.17595,0.21505,0.17595
0.62561,0.1564,0.24438,0.18573
0.52786,0.16618,0.2346,0.17595
0.47898,0.16618,0.20528,0.1955
0.45943,0.1564,0.20528,0.22483
0.43011,0.13685,0.1955,0.1955
0.45943,0.1564,0.1955,0.17595
0.43011,0.16618,0.20528,0.16618
0.43988,0.16618,0.26393,0.14663
0.38123,0.16618,0.26393,0.14663
0.32258,0.16618,0.30303,0.12708
0.30303,0.1564,0.31281,0.1173
0.26393,0.1564,0.34213,0.12708
0.2346,0.14663,0.31281,0.12708
0.2346,0.14663,0.34213,0.1173
0.1955,0.1564,0.34213,0.10753
0.16618,0.16618,0.35191,0.097752
0.16618,0.17595,0.34213,0.087977
0.13685,0.17595,0.34213,0.10753
0.16618,0.16618,0.35191,0.10753
0.1955,0.17595,0.33236,0.13685
0.18573,0.18573,0.32258,0.13685
0.1564,0.21505,0.32258,0.12708
0.1564,0.22483,0.30303,0.12708
0.14663,0.2346,0.31281,0.13685
0.17595,0.22483,0.31281,0.13685
0.16618,0.24438,0.29326,0.12708
0.16618,0.2346,0.26393,0.1173
0.1564,0.25415,0.24438,0.17595
0.16618,0.25415,0.26393,0.16618
0.16618,0.2737,0.2737,0.14663
0.16618,0.2737,0.25415,0.16618
0.18573,0.28348,0.24438,0.16618
0.20528,0.2737,0.2346,0.16618
0.22483,0.29326,0.22483,0.1564
0.20528,0.30303,0.21505,0.1564
0.22483,0.30303,0.25415,0.14663
0.26393,0.31281,0.26393,0.12708
0.26393,0.29326,0.29326,0.10753
0.28348,0.31281,0.29326,0.10753
0.31281,0.31281,0.31281,0.10753
0.31281,0.31281,0.30303,0.10753
0.30303,0.32258,0.30303,0.10753
0.30303,0.31281,0.29326,0.12708
0.31281,0.33236,0.30303,0.12708
0.31281,0.35191,0.29326,0.10753
0.33236,0.35191,0.32258,0.14663
0.32258,0.33236,0.31281,0.16618
0.30303,0.35191,0.30303,0.13685
0.33236,0.36168,0.32258,0.1173
0.38123,0.38123,0.31281,0.10753
0.38123,0.33236,0.30303,0.1564
0.43011,0.29326,0.29326,0.1564
0.40078,0.26393,0.31281,0.14663
0.37146,0.30303,0.32258,0.14663
0.43988,0.32258,0.32258,0.14663
0.46921,0.30303,0.34213,0.12708
0.45943,0.34213,0.31281,0.097752
0.46921,0.31281,0.28348,0.097752
0.47898,0.31281,0.25415,0.1173
0.48876,0.32258,0.22483,0.10753
0.43988,0.29326,0.21505,0.13685
0.44966,0.28348,0.22483,0.14663
0.41056,0.40078,0.21505,0.13685
0.40078,0.40078,0.1955,0.1173
0.45943,0.39101,0.20528,0.12708
0.45943,0.36168,0.1955,0.12708
0.57674,0.36168,0.1955,0.10753
0.57674,0.33236,0.1955,0.1173
0.59629,0.33236,0.21505,0.10753
0.59629,0.31281,0.1955,0.1173
0.59629,0.36168,0.18573,0.10753
0.57674,0.38123,0.20528,0.097752
0.56696,0.43011,0.1955,0.097752
0.52786,0.38123,0.20528,0.097752
0.62561,0.41056,0.22483,0.078201
0.62561,0.43011,0.1955,0.087977
0.59629,0.42033,0.22483,0.087977
0.56696,0.37146,0.21505,0.068426
0.51808,0.34213,0.22483,0.068426
0.56696,0.38123,0.21505,0.068426
0.50831,0.35191,0.21505,0.068426
0.55718,0.34213,0.22483,0.078201
0.50831,0.33236,0.26393,0.068426
0.49853,0.32258,0.26393,0.058651
0.46921,0.30303,0.26393,0.068426
0.43988,0.32258,0.28348,0.058651
0.42033,0.32258,0.29326,0.058651
0.43988,0.31281,0.30303,0.078201
0.46921,0.2737,0.29326,0.078201
0.50831,0.2346,0.30303,0.068426
0.49853,0.22483,0.29326,0.058651
0.48876,0.20528,0.30303,0.048876
0.46921,0.1955,0.28348,0.048876
0.45943,0.17595,0.30303,0.048876
0.44966,0.1564,0.32258,0.068426
0.43011,0.1564,0.30303,0.068426
0.43988,0.14663,0.31281,0.068426
0.43988,0.1564,0.33236,0.058651
0.43988,0.1564,0.30303,0.058651
0.43011,0.13685,0.28348,0.068426
0.40078,0.13685,0.28348,0.058651
0.40078,0.12708,0.2737,0.058651
0.38123,0.1173,0.26393,0.048876
0.32258,0.097752,0.2737,0.058651
0.30303,0.097752,0.32258,0.087977
0.31281,0.087977,0.33236,0.087977
0.37146,0.097752,0.42033,0.078201
0.32258,0.097752,0.42033,0.078201
0.34213,0.087977,0.41056,0.078201
0.41056,0.087977,0.43988,0.078201
0.40078,0.068426,0.44966,0.068426
0.46921,0.068426,0.43988,0.068426
0.44966,0.068426,0.46921,0.068426
0.43011,0.068426,0.51808,0.068426
0.43011,0.068426,0.53763,0.068426
0.38123,0.068426,0.59629,0.058651
0.37146,0.078201,0.58651,0.058651
0.34213,0.097752,0.61584,0.058651
0.36168,0.097752,0.63539,0.048876
0.33236,0.1173,0.60606,0.048876
0.33236,0.1173,0.60606,0.048876
0.39101,0.13685,0.57674,0.048876
0.37146,0.1564,0.62561,0.039101
0.33236,0.16618,0.61584,0.048876
0.30303,0.17595,0.59629,0.048876
0.34213,0.20528,0.61584,0.048876
0.34213,0.21505,0.64516,0.087977
0.30303,0.21505,0.74291,0.078201
0.29326,0.1955,0.69404,0.068426
0.36168,0.1955,0.65494,0.058651
0.32258,0.21505,0.67449,0.058651
0.30303,0.1955,0.65494,0.058651
0.2737,0.18573,0.67449,0.068426
0.2346,0.17595,0.64516,0.058651
0.24438,0.17595,0.63539,0.048876
0.2737,0.16618,0.65494,0.048876
0.30303,0.18573,0.62561,0.039101
0.29326,0.17595,0.65494,0.039101
0.33236,0.17595,0.64516,0.039101
0.32258,0.1955,0.61584,0.048876
0.30303,0.18573,0.60606,0.039101
0.28348,0.18573,0.63539,0.058651
0.29326,0.21505,0.59629,0.068426
0.28348,0.2346,0.70381,0.058651
0.2737,0.2346,0.75269,0.068426
0.2737,0.22483,0.72336,0.058651
0.2346,0.26393,0.80156,0.058651
0.21505,0.2737,0.77224,0.058651
0.2346,0.2737,0.76246,0.058651
0.21505,0.2737,0.74291,0.068426
0.18573,0.2737,0.76246,0.087977
0.16618,0.2737,0.85044,0.078201
0.1564,0.28348,0.81134,0.068426
0.16618,0.26393,0.79179,0.087977
0.13685,0.2737,0.82111,0.078201
0.12708,0.28348,0.76246,0.068426
0.14663,0.29326,0.74291,0.068426
0.1564,0.28348,0.72336,0.068426
0.18573,0.2737,0.67449,0.078201
0.16618,0.25415,0.61584,0.078201
0.17595,0.25415,0.64516,0.078201
0.1564,0.25415,0.60606,0.078201
0.18573,0.24438,0.65494,0.068426
0.1564,0.28348,0.61584,0.068426
0.14663,0.28348,0.56696,0.087977
0.13685,0.26393,0.64516,0.087977
0.12708,0.22483,0.61584,0.087977
0.1564,0.26393,0.68426,0.078201
0.14663,0.26393,0.63539,0.078201
0.1564,0.28348,0.61584,0.078201
0.14663,0.2737,0.59629,0.068426
0.12708,0.25415,0.57674,0.078201
0.13685,0.29326,0.49853,0.078201
0.17595,0.28348,0.44966,0.068426
0.17595,0.2737,0.43988,0.078201
0.29326,0.2737,0.35191,0.097752
0.32258,0.24438,0.29326,0.087977
0.28348,0.22483,0.22483,0.087977
0.24438,0.21505,0.17595,0.068426
0.2346,0.21505,0.14663,0.068426
0.22483,0.20528,0.1173,0.10753
0.1955,0.20528,0.087977,0.10753
0.22483,0.1955,0.068426,0.097752
0.21505,0.1955,0.048876,0.078201
0.18573,0.2346,0.039101,0.078201
0.18573,0.22483,0.029326,0.068426
0.17595,0.2346,0.01955,0.058651
0.16618,0.2346,0.01955,0.068426
0.13685,0.26393,0.0097752,0.068426
0.14663,0.22483,0.0097752,0.058651
0.14663,0.20528,0.0097752,0.048876
0.13685,0.2346,0.0097752,0.048876
0.1173,0.21505,0,0.078201
0.1173,0.20528,0,0.087977
0.16618,0.20528,0,0.087977
0.17595,0.1955,0,0.078201
0.16618,0.18573,0,0.078201
0.16618,0.18573,0,0.078201
0.17595,0.17595,0,0.078201
0.14663,0.16618,0,0.087977
0.12708,0.18573,0,0.097752
0.12708,0.18573,0,0.087977
0.10753,0.1955,0,0.087977
0.1173,0.18573,0,0.078201
0.14663,0.18573,0,0.068426
0.13685,0.17595,0,0.087977
0.12708,0.17595,0,0.097752
0.12708,0.16618,0,0.078201
0.1173,0.17595,0,0.068426
0.1173,0.1955,0,0.068426
0.12708,0.18573,0,0.068426
0.1173,0.17595,0,0.068426
0.10753,0.17595,0,0.068426
0.087977,0.18573,0,0.068426
0.087977,0.18573,0,0.068426
0.078201,0.17595,0,0.058651
0.058651,0.17595,0,0.058651
0.068426,0.17595,0,0.068426
0.048876,0.18573,0,0.058651
0.048876,0.22483,0,0.068426
0.058651,0.22483,0,0.068426
0.058651,0.21505,0,0.068426
0.058651,0.24438,0,0.068426
0.048876,0.25415,0,0.048876
0.048876,0.2346,0,0.048876
0.058651,0.22483,0,0.058651
0.058651,0.1955,0,0.068426
0.13685,0.18573,0,0.078201
0.048876,0.18573,0,0.068426
0.058651,0.16618,0,0.068426
0.078201,0.14663,0,0.058651
0.087977,0.14663,0,0.068426
0.087977,0.17595,0,0.068426
0.078201,0.1564,0,0.058651
0.068426,0.13685,0,0.058651
0.058651,0.13685,0,0.078201
0.058651,0.13685,0,0.078201
0.058651,0.12708,0,0.068426
0.068426,0.12708,0,0.068426
0.068426,0.13685,0,0.078201
0.068426,0.12708,0,0.078201
0.068426,0.13685,0,0.078201
0.068426,0.14663,0,0.078201
0.058651,0.1564,0,0.078201
0.058651,0.1564,0,0.068426
0.058651,0.14663,0,0.087977
0.078201,0.13685,0,0.078201
0.068426,0.14663,0,0.068426
0.058651,0.13685,0,0.068426
0.048876,0.14663,0,0.058651
0.058651,0.14663,0,0.058651
0.078201,0.1564,0,0.058651
0.068426,0.14663,0,0.048876
0.068426,0.12708,0,0.068426
0.068426,0.13685,0,0.068426
0.068426,0.13685,0,0.078201
0.078201,0.1564,0,0.087977
0.078201,0.13685,0,0.078201
0.078201,0.12708,0,0.078201
0.078201,0.1173,0,0.078201
0.078201,0.12708,0,0.078201
0.078201,0.12708,0,0.087977
0.058651,0.1173,0,0.068426
0.048876,0.10753,0,0.068426
0.068426,0.12708,0,0.068426
0.087977,0.13685,0,0.087977
0.078201,0.12708,0,0.097752
0.068426,0.10753,0,0.10753
0.087977,0.10753,0,0.13685
0.097752,0.1173,0,0.13685
0.087977,0.1173,0,0.12708
0.10753,0.1173,0,0.1173
0.097752,0.12708,0,0.13685
0.087977,0.12708,0,0.12708
0.087977,0.10753,0,0.13685
0.078201,0.1173,0,0.12708
0.078201,0.12708,0,0.1173
0.068426,0.13685,0,0.12708
0.068426,0.1564,0,0.14663
0.068426,0.16618,0,0.16618
0.078201,0.16618,0,0.16618
0.078201,0.14663,0,0.17595
0.078201,0.13685,0,0.20528
0.068426,0.1173,0,0.31281
0.068426,0.1173,0,0.32258
0.10753,0.10753,0,0.30303
0.087977,0.1173,0,0.29326
0.068426,0.10753,0,0.34213
0.068426,0.10753,0,0.39101
0.078201,0.097752,0,0.46921
0.078201,0.097752,0,0.52786
0.068426,0.10753,0,0.65494
0.058651,0.1173,0,0.87977
0.048876,0.10753,0,1.1241
0.048876,0.12708,0,1.1241
0.048876,0.1173,0,1.1046
0.048876,0.097752,0,1.1632
0.048876,0.1173,0,1.1828
0.048876,0.10753,0,1.2805
0.048876,0.10753,0,1.173
0.058651,0.10753,0,1.1632
0.048876,0.10753,0,1.085
0.048876,0.097752,0,1.0264
0.048876,0.087977,0,0.99707
0.058651,0.097752,0,1.3001
0.039101,0.097752,0,1.3978
0.039101,0.087977,0,1.4174
0.039101,0.087977,0,1.437
0.039101,0.087977,0,1.4565
0.029326,0.097752,0,1.6813
0.029326,0.097752,0,1.6618
0.029326,0.087977,0,1.7009
0.039101,0.078201,0,1.6422
0.029326,0.078201,0,1.8671
0.039101,0.087977,0,1.7693
0.039101,0.087977,0,1.6618
0.039101,0.097752,0,1.5347
0.039101,0.097752,0,1.5054
0.048876,0.1173,0,1.5054
0.058651,0.1173,0,1.4663
0.048876,0.1173,0,1.6422
0.039101,0.12708,0,1.7498
0.039101,0.1173,0,1.8671
0.039101,0.1173,0,1.8866
0.039101,0.1173,0,2.1017
0.029326,0.1173,0,1.9648
0.039101,0.1173,0,1.9257
0.039101,0.1173,0,1.828
0.039101,0.1173,0,1.8377
0.029326,0.1173,0,2.0137
0.039101,0.10753,0,1.9355
0.048876,0.10753,0,1.9355
0.039101,0.12708,0,1.74
0.039101,0.1173,0,1.7693
0.039101,0.10753,0,1.7595
0.029326,0.10753,0,1.7498
0.029326,0.1173,0,1.7693
0.029326,0.1173,0,1.9355
0.029326,0.13685,0.0097752,1.8084
0.029326,0.1173,0.0097752,1.7302
0.029326,0.1173,0.0097752,1.6911
0.058651,0.1173,0,1.6227
0.058651,0.1173,0,1.5249
0.048876,0.1173,0.0097752,1.4467
0.039101,0.10753,0.029326,1.2512
0.039101,0.1173,0.048876,1.1241
0.039101,0.12708,0.078201,1.085
0.029326,0.12708,0.087977,0.98729
0.039101,0.12708,0.10753,0.98729
0.029326,0.13685,0.078201,0.86022
0.029326,0.13685,0.058651,0.78201
0.039101,0.12708,0.058651,0.69404
0.039101,0.12708,0.039101,0.59629
0.029326,0.1173,0.029326,0.61584
0.039101,0.1173,0.039101,0.51808
0.039101,0.13685,0.029326,0.47898
0.029326,0.1173,0.01955,0.45943
0.029326,0.12708,0.0097752,0.38123
0.039101,0.12708,0.0097752,0.36168
0.029326,0.1173,0.0097752,0.31281
0.029326,0.10753,0.029326,0.28348
0.029326,0.12708,0.087977,0.2737
0.01955,0.13685,0.097752,0.2737
0.029326,0.1173,0.1173,0.25415
0.01955,0.10753,0.14663,0.2346
0.0097752,0.10753,0.12708,0.28348
0.01955,0.10753,0.12708,0.28348
0.0097752,0.097752,0.12708,0.28348
0.01955,0.087977,0.12708,0.2737
0.01955,0.097752,0.14663,0.29326
0.01955,0.1173,0.16618,0.29326
0.039101,0.097752,0.17595,0.30303
0.078201,0.1173,0.1564,0.30303
0.068426,0.12708,0.1564,0.28348
0.068426,0.1173,0.21505,0.29326
0.087977,0.10753,0.20528,0.32258
0.097752,0.12708,0.1955,0.35191
0.10753,0.12708,0.1955,0.33236
0.10753,0.10753,0.20528,0.32258
0.14663,0.10753,0.21505,0.32258
0.14663,0.10753,0.20528,0.37146
0.1564,0.1173,0.20528,0.40078
0.16618,0.1173,0.20528,0.44966
0.17595,0.1173,0.20528,0.54741
0.1564,0.12708,0.1955,0.63539
0.16618,0.12708,0.18573,0.59629
0.18573,0.14663,0.17595,0.56696
0.2346,0.12708,0.18573,0.52786
0.25415,0.1173,0.17595,0.48876
0.25415,0.1173,0.20528,0.49853
0.25415,0.097752,0.20528,0.51808
0.31281,0.10753,0.20528,0.62561
0.42033,0.097752,0.21505,0.65494
0.53763,0.078201,0.20528,0.76246
0.56696,0.078201,0.20528,0.68426
0.63539,0.078201,0.20528,0.68426
0.61584,0.078201,0.21505,0.67449
0.54741,0.078201,0.22483,0.63539
0.53763,0.048876,0.22483,0.59629
0.64516,0.078201,0.21505,0.51808
0.69404,0.097752,0.18573,0.54741
0.70381,0.087977,0.1955,0.53763
1.1144,0.087977,0.1955,0.59629
1.0753,0.097752,0.18573,0.61584
1.1828,0.10753,0.1955,0.61584
1.2023,0.1173,0.24438,0.65494
1.3001,0.1173,0.22483,0.64516
1.173,0.1173,0.22483,0.63539
1.4076,0.1173,0.25415,0.63539
1.6422,0.10753,0.26393,0.68426
1.5152,0.12708,0.26393,0.69404
1.3196,0.1173,0.24438,0.61584
1.2512,0.12708,0.24438,0.58651
1.2317,0.10753,0.21505,0.55718
1.437,0.10753,0.21505,0.53763
1.349,0.1173,0.22483,0.57674
1.1535,0.1173,0.22483,0.58651
1.1437,0.10753,0.28348,0.55718
1.1437,0.10753,0.2737,0.55718
1.2805,0.10753,0.24438,0.57674
1.3783,0.1173,0.22483,0.52786
1.4565,0.12708,0.22483,0.45943
1.2414,0.1173,0.22483,0.43011
1.2023,0.1173,0.22483,0.46921
1.3392,0.10753,0.20528,0.43011
1.2805,0.1173,0.2346,0.43988
1.2708,0.10753,0.20528,0.42033
1.2219,0.087977,0.21505,0.40078
1.2414,0.1173,0.20528,0.43011
1.3099,0.10753,0.20528,0.43011
1.261,0.1173,0.22483,0.52786
1.3001,0.10753,0.20528,0.48876
1.5738,0.097752,0.21505,0.45943
1.5836,0.097752,0.26393,0.43011
1.3881,0.097752,0.22483,0.43011
1.4565,0.097752,0.21505,0.41056
1.4174,0.10753,0.22483,0.41056
1.3783,0.1173,0.21505,0.37146
1.3099,0.097752,0.22483,0.37146
1.3783,0.1173,0.21505,0.38123
1.6129,0.14663,0.21505,0.42033
1.6618,0.13685,0.2346,0.48876
1.6227,0.12708,0.21505,0.42033
1.5249,0.12708,0.20528,0.39101
1.3294,0.1173,0.21505,0.36168
1.3685,0.12708,0.1955,0.35191
1.1828,0.1173,0.1955,0.31281
1.085,0.12708,0.20528,0.30303
1.0068,0.13685,0.22483,0.30303
0.89932,0.14663,0.24438,0.34213
0.82111,0.14663,0.24438,0.32258
0.73314,0.14663,0.25415,0.36168
0.60606,0.13685,0.25415,0.34213
0.55718,0.13685,0.28348,0.35191
0.49853,0.13685,0.2737,0.35191
0.46921,0.12708,0.26393,0.35191
0.48876,0.1173,0.2737,0.34213
0.53763,0.12708,0.29326,0.32258
0.60606,0.12708,0.31281,0.31281
0.53763,0.12708,0.29326,0.31281
0.46921,0.12708,0.31281,0.29326
0.45943,0.12708,0.33236,0.29326
0.42033,0.12708,0.30303,0.28348
0.36168,0.12708,0.28348,0.29326
0.34213,0.1173,0.26393,0.30303
0.36168,0.10753,0.25415,0.32258
0.32258,0.10753,0.25415,0.33236
0.28348,0.097752,0.25415,0.30303
0.29326,0.097752,0.2346,0.30303
0.28348,0.097752,0.22483,0.33236
0.32258,0.10753,0.2737,0.35191
0.35191,0.10753,0.25415,0.29326
0.39101,0.12708,0.22483,0.25415
0.36168,0.12708,0.22483,0.25415
0.35191,0.1173,0.24438,0.26393
0.32258,0.1173,0.22483,0.29326
0.31281,0.12708,0.20528,0.25415
0.29326,0.12708,0.22483,0.2346
0.30303,0.1564,0.21505,0.25415
0.28348,0.1564,0.2346,0.2737
0.31281,0.16618,0.21505,0.2737
0.28348,0.16618,0.22483,0.25415
0.34213,0.16618,0.22483,0.24438
0.32258,0.1955,0.20528,0.24438
0.38123,0.1955,0.21505,0.24438
0.41056,0.1955,0.21505,0.2346
0.39101,0.20528,0.20528,0.21505
0.41056,0.1955,0.2737,0.25415
0.42033,0.1955,0.29326,0.2346
0.40078,0.1955,0.28348,0.1955
0.44966,0.20528,0.30303,0.1955
0.41056,0.26393,0.28348,0.1955
0.36168,0.33236,0.29326,0.20528
0.41056,0.38123,0.29326,0.22483
0.42033,0.41056,0.29326,0.1955
0.38123,0.39101,0.2737,0.16618
0.39101,0.35191,0.28348,0.14663
0.35191,0.35191,0.2737,0.1564
0.40078,0.34213,0.28348,0.17595
0.43988,0.33236,0.31281,0.1564
0.39101,0.35191,0.30303,0.14663
0.38123,0.36168,0.28348,0.1564
0.41056,0.36168,0.29326,0.16618
0.42033,0.35191,0.26393,0.1564
0.38123,0.39101,0.26393,0.12708
0.43011,0.44966,0.26393,0.10753
0.42033,0.47898,0.25415,0.087977
0.40078,0.52786,0.2737,0.078201
0.38123,0.52786,0.25415,0.078201
0.40078,0.60606,0.25415,0.078201
0.38123,0.60606,0.2737,0.10753
0.39101,0.59629,0.24438,0.097752
0.41056,0.57674,0.25415,0.087977
0.42033,0.58651,0.24438,0.068426
0.41056,0.61584,0.22483,0.058651
0.38123,0.69404,0.2346,0.048876
0.46921,0.69404,0.26393,0.058651
0.42033,0.72336,0.30303,0.087977
0.39101,0.71359,0.28348,0.078201
0.40078,0.69404,0.26393,0.068426
0.43011,0.68426,0.26393,0.058651
0.42033,0.67449,0.26393,0.068426
0.43988,0.70381,0.26393,0.068426
0.43011,0.65494,0.2346,0.068426
0.43011,0.66471,0.21505,0.078201
0.40078,0.61584,0.2737,0.087977
0.42033,0.59629,0.26393,0.087977
0.39101,0.59629,0.2346,0.097752
0.42033,0.61584,0.22483,0.1173
0.53763,0.63539,0.2346,0.10753
0.58651,0.61584,0.21505,0.1173
0.55718,0.67449,0.21505,0.10753
0.55718,0.61584,0.21505,0.10753
0.54741,0.56696,0.20528,0.13685
0.51808,0.53763,0.1955,0.16618
0.49853,0.48876,0.22483,0.1955
0.49853,0.43988,0.22483,0.18573
0.53763,0.43988,0.1955,0.1564
0.55718,0.43988,0.18573,0.1564
0.52786,0.42033,0.20528,0.1564
0.48876,0.38123,0.20528,0.14663
0.52786,0.39101,0.22483,0.13685
0.48876,0.40078,0.24438,0.14663
0.48876,0.36168,0.22483,0.14663
0.53763,0.35191,0.24438,0.13685
0.50831,0.37146,0.24438,0.1173
0.47898,0.31281,0.22483,0.10753
0.45943,0.26393,0.25415,0.10753
0.61584,0.24438,0.26393,0.097752
0.61584,0.22483,0.24438,0.078201
0.63539,0.20528,0.24438,0.097752
0.54741,0.1955,0.24438,0.12708
0.50831,0.1955,0.22483,0.14663
0.49853,0.17595,0.21505,0.12708
0.53763,0.1955,0.18573,0.10753
0.56696,0.17595,0.20528,0.087977
0.57674,0.16618,0.25415,0.068426
0.59629,0.1955,0.24438,0.058651
0.53763,0.17595,0.28348,0.058651
0.44966,0.1564,0.30303,0.048876
0.42033,0.14663,0.34213,0.029326
0.48876,0.14663,0.37146,0.039101
0.42033,0.12708,0.36168,0.029326
0.43988,0.1173,0.38123,0.029326
0.47898,0.10753,0.36168,0.029326
0.41056,0.097752,0.43988,0.029326
0.45943,0.087977,0.47898,0.01955
0.40078,0.078201,0.45943,0.01955
0.36168,0.078201,0.44966,0.01955
0.36168,0.068426,0.53763,0.01955
0.33236,0.068426,0.55718,0.01955
0.34213,0.068426,0.56696,0.01955
0.41056,0.068426,0.62561,0.039101
0.38123,0.078201,0.68426,0.048876
0.35191,0.078201,0.67449,0.048876
0.36168,0.097752,0.68426,0.039101
0.34213,0.097752,0.60606,0.039101
0.34213,0.1173,0.59629,0.058651
0.34213,0.12708,0.60606,0.058651
0.43011,0.13685,0.59629,0.048876
0.43988,0.14663,0.61584,0.029326
0.45943,0.17595,0.62561,0.039101
0.43988,0.17595,0.66471,0.039101
0.42033,0.1955,0.66471,0.087977
0.43011,0.20528,0.60606,0.087977
0.39101,0.25415,0.67449,0.068426
0.43988,0.30303,0.71359,0.078201
0.53763,0.29326,0.80156,0.068426
0.52786,0.29326,0.74291,0.068426
0.53763,0.28348,0.67449,0.078201
0.49853,0.28348,0.78201,0.087977
0.43011,0.25415,0.70381,0.078201
0.36168,0.2737,0.60606,0.078201
0.36168,0.24438,0.62561,0.10753
0.39101,0.25415,0.64516,0.13685
0.36168,0.2737,0.65494,0.068426
0.31281,0.2737,0.62561,0.1173
0.28348,0.26393,0.60606,0.12708
0.24438,0.24438,0.59629,0.13685
0.2346,0.25415,0.69404,0.068426
0.26393,0.26393,0.63539,0.12708
0.21505,0.25415,0.66471,0.1173
0.18573,0.24438,0.61584,0.1173
0.1564,0.2737,0.61584,0.078201
0.12708,0.2737,0.59629,0.10753
0.10753,0.26393,0.76246,0.10753
0.097752,0.28348,0.69404,0.12708
0.12708,0.31281,0.67449,0.097752
0.17595,0.28348,0.64516,0.12708
0.1955,0.2737,0.77224,0.12708
0.17595,0.28348,0.79179,0.12708
0.14663,0.26393,0.70381,0.10753
0.13685,0.26393,0.71359,0.10753
0.1564,0.25415,0.73314,0.1173
0.12708,0.24438,0.71359,0.1173
0.097752,0.22483,0.61584,0.10753
0.10753,0.20528,0.62561,0.12708
0.087977,0.22483,0.54741,0.12708
0.068426,0.22483,0.50831,0.12708
0.029326,0.24438,0.43988,0.10753
0.039101,0.26393,0.40078,0.1173
0.01955,0.25415,0.44966,0.12708
0.039101,0.2346,0.41056,0.14663
0.078201,0.21505,0.37146,0.1955
0.097752,0.20528,0.37146,0.12708
0.097752,0.20528,0.32258,0.10753
0.087977,0.20528,0.35191,0.12708
0.078201,0.18573,0.34213,0.14663
0.068426,0.1955,0.28348,0.13685
0.048876,0.18573,0.2737,0.12708
0.029326,0.17595,0.24438,0.12708
0.048876,0.18573,0.21505,0.13685
0.048876,0.17595,0.20528,0.13685
0.048876,0.16618,0.18573,0.1173
0.039101,0.17595,0.21505,0.097752
0.01955,0.18573,0.16618,0.1173
0.058651,0.16618,0.13685,0.12708
0.097752,0.16618,0.1173,0.1564
0.078201,0.16618,0.087977,0.12708
0.058651,0.1564,0.048876,0.13685
0.0097752,0.21505,0.029326,0.12708
0.039101,0.20528,0.0097752,0.13685
0.048876,0.20528,0,0.13685
0.029326,0.21505,0,0.12708
0.048876,0.25415,0,0.12708
0.058651,0.25415,0,0.1173
0.058651,0.22483,0,0
0.10753,0.21505,0,0.12708
0.097752,0.22483,0,0.10753
0.087977,0.20528,0,0.1173
0.078201,0.21505,0,0.13685
0.068426,0.2346,0,0.12708
0.12708,0.26393,0,0.12708
0.087977,0.25415,0,0.1173
0.087977,0.22483,0,0.1173
0.087977,0.2346,0,0.10753
0.10753,0.24438,0,0.097752
0.16618,0.2346,0,0.097752
0.1564,0.22483,0,0.078201
0.1173,0.20528,0,0.068426
0.10753,0.18573,0,0.068426
0.087977,0.1955,0,0.097752
0.078201,0.18573,0,0.078201
0.097752,0.18573,0,0.087977
0.078201,0.1955,0,0.078201
0.087977,0.18573,0,0.068426
0.097752,0.20528,0,0.068426
0.1173,0.18573,0,0.068426
0.10753,0.17595,0,0.087977
0.068426,0.16618,0,0.068426
0.058651,0.1955,0,0.078201
0.058651,0.18573,0,0.068426
0.058651,0.18573,0,0.078201
0.039101,0.18573,0,0.087977
0.0097752,0.16618,0,0.078201
0.01955,0.1564,0,0.078201
0.01955,0.16618,0,0.068426
0,0.1564,0,0.058651
0,0.17595,0,0.058651
0,0.1564,0,0.068426
0.0097752,0.1564,0,0.087977
0.01955,0.1564,0,0.10753
0.0097752,0.14663,0,0.12708
0,0.16618,0,0.1564
0,0.17595,0,0.13685
0,0.17595,0,0.1564
0,0.1564,0,0.17595
0,0.14663,0,0.18573
0,0.16618,0,0.17595
0,0.14663,0,0.1955
0,0.13685,0,0.20528
0,0.13685,0,0.1955
0,0.13685,0,0.22483
0,0.12708,0,0.20528
0,0.18573,0,0.21505
0,0.17595,0,0.21505
0,0.1564,0,0.2346
0,0.14663,0,0.22483
0,0.1564,0,0.26393
0.0097752,0.16618,0,0.31281
0.0097752,0.1173,0,0.30303
0.048876,0.13685,0,0.30303
0.068426,0.14663,0,0.31281
0.058651,0.1564,0,0.33236
0.058651,0.18573,0,0.49853
0.048876,0.16618,0,0.51808
0.048876,0.16618,0,0.49853
0.058651,0.16618,0,0.65494
0.068426,0.17595,0,0.75269
0.058651,0.16618,0,0.91887
0.087977,0.1564,0,1.1339
0.10753,0.14663,0,1.349
0.097752,0.16618,0,1.437
0.087977,0.16618,0,1.349
0.1173,0.16618,0,1.4076
0.10753,0.1564,0,1.3294
0.097752,0.14663,0,1.6031
0.087977,0.14663,0,1.6325
0.087977,0.14663,0,1.955
0.087977,0.12708,0,2.0235
0.097752,0.13685,0,1.7986
0.087977,0.14663,0,1.6716
0.087977,0.14663,0,1.9648
0.097752,0.13685,0,1.8768
0.097752,0.13685,0,1.7204
0.087977,0.13685,0,1.8377
0.087977,0.12708,0,1.6716
0.087977,0.1173,0,1.6227
0.078201,0.12708,0,1.6129
0.068426,0.13685,0,1.6716
0.068426,0.12708,0,1.8377
0.068426,0.1173,0,1.6911
0.068426,0.1173,0,1.8768
0.068426,0.1173,0,1.9648
0.097752,0.10753,0,2.0723
0.097752,0.10753,0,2.1701
0.078201,0.12708,0,2.1505
0.078201,0.1173,0,2.0528
0.078201,0.10753,0,1.955
0.068426,0.1173,0,2.0235
0.058651,0.12708,0,2.0039
0.048876,0.1173,0,2.1896
0.039101,0.13685,0,2.1212
0.048876,0.1173,0,2.1603
0.048876,0.1173,0,2.2287
0.039101,0.1173,0,2.2483
0.039101,0.1173,0,2.4438
0.039101,0.1173,0,2.2972
0.048876,0.1173,0,2.0723
0.039101,0.1173,0,1.7889
0.039101,0.1173,0,1.6422
0.029326,0.10753,0,1.7009
0.029326,0.1173,0,1.7791
0.029326,0.1173,0,1.5738
0.029326,0.10753,0,1.564
0.039101,0.12708,0,1.6227
0.039101,0.13685,0,1.5543
0.029326,0.1564,0,1.564
0.029326,0.13685,0,1.5738
0.029326,0.13685,0,1.3978
0.029326,0.13685,0,1.4174
0.048876,0.12708,0,1.3587
0.048876,0.12708,0,1.3196
0.039101,0.1173,0,1.173
0.029326,0.12708,0,1.1339
0.039101,0.14663,0,1.1144
0.039101,0.13685,0,1.0166
0.048876,0.12708,0,0.89932
0.039101,0.12708,0,0.75269
0.039101,0.12708,0,0.71359
0.029326,0.1173,0,0.71359
0.01955,0.12708,0,0.64516
0.01955,0.1173,0,0.59629
0.0097752,0.10753,0,0.48876
0.0097752,0.10753,0,0.41056
0.0097752,0.14663,0,0.41056
0.0097752,0.1564,0,0.43988
0.0097752,0.1564,0,0.46921
0.0097752,0.1564,0,0.40078
0.0097752,0.1564,0,0.40078
0.0097752,0.1564,0,0.43011
0.0097752,0.17595,0.0097752,0.38123
0.0097752,0.13685,0.039101,0.40078
0.0097752,0.16618,0.058651,0.43011
0.01955,0.1955,0.068426,0.38123
0.029326,0.1955,0.087977,0.35191
0.01955,0.20528,0.068426,0.35191
0.01955,0.18573,0.058651,0.34213
0.029326,0.21505,0.058651,0.32258
0.01955,0.1955,0.039101,0.29326
0.039101,0.18573,0.029326,0.30303
0.039101,0.17595,0.039101,0.29326
0.068426,0.18573,0.029326,0.2737
0.10753,0.17595,0.01955,0.26393
0.087977,0.1564,0.01955,0.29326
0.078201,0.14663,0.01955,0.30303
0.068426,0.12708,0.029326,0.35191
0.068426,0.13685,0.029326,0.36168
0.087977,0.12708,0.029326,0.35191
0.097752,0.1173,0.029326,0.34213
0.1173,0.12708,0.01955,0.41056
0.13685,0.12708,0.029326,0.41056
0.17595,0.12708,0.029326,0.45943
0.1955,0.10753,0.01955,0.49853
0.16618,0.10753,0.01955,0.54741
0.1564,0.12708,0.029326,0.52786
0.1955,0.1173,0.029326,0.58651
0.1955,0.10753,0.01955,0.61584
0.18573,0.1173,0.029326,0.59629
0.18573,0.13685,0.078201,0.57674
0.20528,0.1173,0.097752,0.64516
0.2346,0.10753,0.1173,0.61584
0.29326,0.10753,0.12708,0.60606
0.30303,0.1173,0.14663,0.65494
0.39101,0.10753,0.14663,0.58651
0.41056,0.10753,0.14663,0.61584
0.43988,0.10753,0.20528,0.58651
0.60606,0.097752,0.2346,0.53763
0.84066,0.1173,0.21505,0.60606
1.0166,0.12708,0.20528,0.58651
0.90909,0.1173,0.22483,0.57674
0.87977,0.10753,0.21505,0.56696
0.90909,0.097752,0.22483,0.53763
0.92864,0.10753,0.20528,0.59629
1.0459,0.097752,0.21505,0.57674
1.1632,0.087977,0.2346,0.53763
1.1339,0.087977,0.2737,0.53763
1.1926,0.078201,0.26393,0.50831
1.3001,0.1173,0.30303,0.45943
1.3294,0.10753,0.30303,0.43988
1.4467,0.10753,0.28348,0.43988
1.5543,0.097752,0.2737,0.44966
1.4174,0.097752,0.26393,0.44966
1.3196,0.10753,0.24438,0.43011
1.2414,0.097752,0.24438,0.47898
1.3685,0.097752,0.2346,0.51808
1.3392,0.12708,0.2346,0.48876
1.349,0.10753,0.22483,0.44966
1.2512,0.087977,0.22483,0.43011
1.261,0.097752,0.21505,0.48876
1.4272,0.10753,0.21505,0.50831
1.5543,0.12708,0.22483,0.53763
1.437,0.1173,0.22483,0.50831
1.3978,0.12708,0.24438,0.47898
1.3881,0.1173,0.2346,0.54741
1.3881,0.14663,0.22483,0.58651
1.4272,0.14663,0.21505,0.52786
1.4761,0.13685,0.21505,0.49853
1.349,0.12708,0.22483,0.48876
1.2414,0.12708,0.21505,0.49853
1.1926,0.1173,0.22483,0.49853
1.1241,0.13685,0.24438,0.54741
1.2219,0.12708,0.2346,0.53763
1.3196,0.13685,0.22483,0.50831
1.349,0.1173,0.21505,0.45943
1.2317,0.1173,0.22483,0.43988
1.1828,0.10753,0.2346,0.42033
1.085,0.1173,0.26393,0.43011
1.0948,0.10753,0.26393,0.51808
1.173,0.1173,0.24438,0.48876
1.2805,1.0362,0.2737,0.2737
3.0303,1.8964,0.37146,1.349
2.61,1.7986,0.38123,1.8475
2.3363,1.6031,0.38123,2.0821
1.9453,1.4467,0.38123,2.1896
1.6129,1.2317,0.36168,2.0919
1.3392,1.2023,0.32258,1.74
1.1046,1.0557,0.32258,1.437
0.94819,1.1046,0.34213,1.1926
0.80156,1.0948,0.31281,0.99707
0.65494,0.98729,0.28348,0.86999
0.55718,1.0264,0.28348,0.73314
0.45943,1.1339,0.2737,0.62561
0.41056,1.3392,0.29326,0.53763
0.35191,1.2805,0.30303,0.48876
0.29326,1.3881,0.29326,0.42033
0.25415,1.5934,0.2737,0.36168
0.21505,1.652,0.26393,0.32258
0.18573,1.6813,0.26393,0.28348
0.16618,1.7595,0.2346,0.25415
0.17595,1.5836,0.2346,0.2346
0.16618,1.4663,0.25415,0.22483
0.1564,1.4565,0.29326,0.1955
0.18573,1.349,0.2737,0.18573
0.22483,1.3685,0.26393,0.17595
0.26393,1.3587,0.24438,0.17595
0.25415,1.3001,0.26393,0.17595
0.2737,1.2317,0.25415,0.1564
0.2737,1.1241,0.2346,0.14663
0.34213,1.1339,0.22483,0.1564
0.32258,0.98729,0.20528,0.14663
0.31281,0.86999,0.21505,0.1955
0.28348,0.80156,0.20528,0.1955
0.25415,0.80156,0.20528,0.17595
0.32258,0.80156,0.1955,0.16618
0.38123,0.70381,0.17595,0.1564
0.34213,0.73314,0.17595,0.1564
0.30303,0.73314,0.1955,0.14663
0.34213,0.63539,0.21505,0.14663
0.34213,0.55718,0.20528,0.14663
0.34213,0.48876,0.1955,0.13685
0.35191,0.43011,0.18573,0.14663
0.34213,0.35191,0.1955,0.13685
0.32258,0.30303,0.21505,0.13685
0.29326,0.2737,0.20528,0.12708
0.28348,0.30303,0.22483,0.13685
0.30303,0.26393,0.2346,0.12708
0.2737,0.25415,0.22483,0.12708
0.2737,0.2346,0.20528,0.12708
0.31281,0.22483,0.20528,0.12708
0.29326,0.22483,0.1955,0.12708
0.2737,0.26393,0.21505,0.1173
0.28348,0.28348,0.20528,0.1173
0.26393,0.30303,0.1955,0.12708
0.29326,0.2737,0.18573,0.12708
0.29326,0.2737,0.18573,0.12708
0.29326,0.26393,0.18573,0.1173
0.28348,0.24438,0.17595,0.1173
0.30303,0.25415,0.20528,0.10753
0.36168,0.2737,0.18573,0.10753
0.35191,0.26393,0.17595,0.097752
0.40078,0.26393,0.18573,0.10753
0.41056,0.28348,0.20528,0.10753
0.43011,0.32258,0.18573,0.12708
0.47898,0.33236,0.17595,0.12708
0.47898,0.32258,0.17595,0.1173
0.43011,0.29326,0.17595,0.1173
0.42033,0.31281,0.16618,0.10753
0.39101,0.31281,0.17595,0.1173
0.39101,0.34213,0.18573,0.1173
0.44966,0.38123,0.1955,0.1173
0.43988,0.43011,0.17595,0.10753
0.45943,0.41056,0.18573,0.10753
0.45943,0.40078,0.18573,0.10753
0.42033,0.42033,0.17595,0.097752
0.42033,0.42033,0.20528,0.097752
0.41056,0.38123,0.20528,0.097752
0.42033,0.39101,0.21505,0.087977
0.37146,0.40078,0.22483,0.087977
0.40078,0.40078,0.20528,0.078201
0.38123,0.37146,0.22483,0.078201
0.42033,0.36168,0.22483,0.078201
0.37146,0.35191,0.22483,0.087977
0.37146,0.43011,0.26393,0.078201
0.39101,0.40078,0.24438,0.087977
0.36168,0.44966,0.26393,0.078201
0.47898,0.42033,0.25415,0.078201
0.44966,0.43011,0.2737,0.078201
0.41056,0.43011,0.30303,0.078201
0.51808,0.43011,0.37146,0.087977
0.51808,0.40078,0.39101,0.078201
0.46921,0.37146,0.43988,0.078201
0.48876,0.37146,0.50831,0.078201
0.46921,0.34213,0.52786,0.087977
0.47898,0.31281,0.53763,0.078201
0.47898,0.30303,0.56696,0.078201
0.42033,0.28348,0.58651,0.078201
0.42033,0.33236,0.57674,0.068426
0.40078,0.37146,0.63539,0.087977
0.43988,0.41056,0.60606,0.078201
0.49853,0.41056,0.64516,0.078201
0.43988,0.38123,0.64516,0.078201
0.39101,0.37146,0.70381,0.087977
0.42033,0.35191,0.87977,0.097752
0.39101,0.37146,0.79179,0.097752
0.40078,0.36168,0.81134,0.097752
0.41056,0.36168,0.81134,0.087977
0.45943,0.35191,0.88954,0.087977
0.44966,0.36168,0.86022,0.087977
0.39101,0.33236,0.83089,0.097752
0.38123,0.35191,0.77224,0.087977
0.38123,0.35191,0.77224,0.078201
0.34213,0.33236,0.81134,0.097752
0.34213,0.34213,0.79179,0.097752
0.41056,0.32258,0.86022,0.087977
0.38123,0.31281,0.86022,0.087977
0.37146,0.31281,0.90909,0.078201
0.37146,0.30303,1.0459,0.087977
0.34213,0.33236,1.0166,0.078201
0.34213,0.34213,1.0264,0.078201
0.32258,0.31281,0.99707,0.068426
0.30303,0.29326,0.94819,0.068426
0.33236,0.29326,0.90909,0.068426
0.31281,0.2737,0.90909,0.068426
0.31281,0.24438,1.0362,0.078201
0.36168,0.2346,1.2708,0.078201
0.34213,0.24438,1.3001,0.078201
0.29326,0.25415,1.4565,0.078201
0.30303,0.2346,1.3783,0.087977
0.30303,0.21505,1.3587,0.078201
0.34213,0.24438,1.1926,0.097752
0.34213,0.24438,1.1926,0.097752
0.32258,0.2346,1.0655,0.087977
0.30303,0.24438,0.91887,0.097752
0.28348,0.22483,0.81134,0.087977
0.29326,0.20528,0.81134,0.087977
0.29326,0.22483,0.80156,0.078201
0.28348,0.21505,0.75269,0.078201
0.26393,0.21505,0.70381,0.078201
0.26393,0.22483,0.59629,0.087977
0.2737,0.2346,0.57674,0.087977
0.2737,0.2346,0.60606,0.087977
0.25415,0.22483,0.61584,0.087977
0.2346,0.21505,0.58651,0.078201
0.25415,0.1955,0.52786,0.068426
0.2737,0.1955,0.47898,0.068426
0.30303,0.1955,0.43988,0.078201
0.32258,0.18573,0.37146,0.087977
0.30303,0.20528,0.35191,0.078201
0.36168,0.18573,0.35191,0.078201
0.40078,0.21505,0.31281,0.078201
0.50831,0.22483,0.28348,0.078201
0.53763,0.24438,0.24438,0.078201
0.52786,0.25415,0.22483,0.078201
0.51808,0.24438,0.20528,0.087977
0.62561,0.24438,0.1955,0.078201
0.62561,0.24438,0.18573,0.068426
0.80156,0.25415,0.17595,0.078201
0.78201,0.25415,0.17595,0.078201
0.85044,0.24438,0.17595,0.087977
0.95797,0.22483,0.16618,0.078201
0.93842,0.22483,0.14663,0.078201
1.0557,0.22483,0.14663,0.078201
1.2903,0.22483,0.16618,0.078201
1.3685,0.20528,0.1564,0.078201
1.5347,0.21505,0.13685,0.078201
1.5249,0.21505,0.13685,0.078201
1.6129,0.20528,0.14663,0.087977
1.6227,0.21505,0.13685,0.078201
1.955,0.20528,0.12708,0.078201
2.0723,0.21505,0.13685,0.078201
2.0723,0.22483,0.13685,0.078201
2.0821,0.22483,0.1564,0.087977
2.1603,0.22483,0.18573,0.078201
1.9062,0.22483,0.20528,0.078201
1.74,0.24438,0.20528,0.078201
1.6325,0.28348,0.20528,0.078201
1.4956,0.2737,0.2346,0.078201
1.6813,0.2737,0.24438,0.087977
1.8377,0.2737,0.25415,0.078201
1.7302,0.26393,0.24438,0.078201
1.7889,0.2737,0.30303,0.078201
1.9257,0.26393,0.33236,0.078201
1.6716,0.26393,0.34213,0.078201
1.564,0.24438,0.35191,0.087977
1.5152,0.22483,0.37146,0.087977
1.4174,0.25415,0.41056,0.087977
1.2512,0.25415,0.43988,0.087977
1.2805,0.26393,0.44966,0.078201
1.437,0.25415,0.50831,0.078201
1.3196,0.28348,0.59629,0.078201
1.1926,0.30303,0.60606,0.078201
1.1535,0.31281,0.55718,0.068426
1.1535,0.34213,0.58651,0.078201
1.0753,0.33236,0.60606,0.078201
1.0264,0.36168,0.58651,0.078201
0.88954,0.40078,0.60606,0.078201
0.73314,0.44966,0.57674,0.078201
0.64516,0.48876,0.54741,0.078201
0.52786,0.46921,0.53763,0.078201
0.43011,0.56696,0.55718,0.087977
0.36168,0.62561,0.54741,0.087977
0.31281,0.63539,0.56696,0.087977
0.31281,0.58651,0.52786,0.087977
0.2737,0.61584,0.55718,0.078201
0.26393,0.72336,0.57674,0.078201
0.2346,0.82111,0.55718,0.087977
0.20528,0.93842,0.48876,0.087977
0.20528,1.0459,0.47898,0.087977
0.1955,1.0655,0.49853,0.087977
0.22483,1.0655,0.50831,0.087977
0.22483,1.085,0.48876,0.087977
0.2346,1.0557,0.49853,0.087977
0.26393,0.98729,0.55718,0.087977
0.28348,0.90909,0.52786,0.087977
0.26393,0.93842,0.50831,0.078201
0.31281,1.1339,0.48876,0.078201
0.31281,1.1046,0.43011,0.078201
0.30303,1.173,0.41056,0.078201
0.36168,1.1144,0.38123,0.078201
0.36168,1.2708,0.43988,0.068426
0.39101,1.349,0.41056,0.078201
0.40078,1.2708,0.42033,0.078201
0.42033,1.2219,0.43011,0.078201
0.45943,1.4076,0.43988,0.078201
0.48876,1.2708,0.47898,0.068426
0.51808,1.2414,0.49853,0.068426
0.45943,1.1926,0.54741,0.068426
0.43011,1.1535,0.53763,0.068426
0.39101,1.0557,0.51808,0.068426
0.37146,0.98729,0.47898,0.068426
0.36168,0.91887,0.48876,0.068426
0.31281,0.82111,0.47898,0.078201
0.33236,0.76246,0.42033,0.068426
0.45943,0.68426,0.37146,0.078201
0.43011,0.64516,0.37146,0.078201
0.41056,0.67449,0.39101,0.078201
0.37146,0.61584,0.37146,0.078201
0.39101,0.63539,0.34213,0.087977
0.46921,0.64516,0.34213,0.087977
0.43988,0.61584,0.31281,0.10753
0.42033,0.53763,0.34213,0.10753
0.43988,0.51808,0.36168,0.12708
0.40078,0.48876,0.32258,0.1173
0.39101,0.43988,0.30303,0.1173
0.43011,0.39101,0.29326,0.10753
0.53763,0.37146,0.2737,0.097752
0.55718,0.33236,0.26393,0.10753
0.55718,0.31281,0.26393,0.10753
0.61584,0.2737,0.26393,0.097752
0.59629,0.29326,0.29326,0.10753
0.57674,0.29326,0.29326,0.097752
0.50831,0.26393,0.26393,0.087977
0.53763,0.2737,0.29326,0.097752
0.53763,0.2737,0.29326,0.097752
0.62561,0.26393,0.28348,0.097752
0.69404,0.26393,0.2737,0.087977
0.76246,0.24438,0.25415,0.10753
0.70381,0.25415,0.2346,0.12708
0.63539,0.29326,0.22483,0.1173
0.63539,0.43988,0.21505,0.12708
0.61584,0.42033,0.22483,0.12708
0.57674,0.46921,0.21505,0.1173
0.71359,0.45943,0.2346,0.12708
0.61584,0.50831,0.2346,0.13685
0.58651,0.50831,0.20528,0.12708
0.67449,0.50831,0.21505,0.12708
0.67449,0.53763,0.20528,0.1173
0.64516,0.47898,0.22483,0.12708
0.57674,0.57674,0.24438,0.10753
0.52786,0.60606,0.21505,0.1173
0.48876,0.60606,0.22483,0.10753
0.53763,0.59629,0.2346,0.10753
0.55718,0.55718,0.21505,0.1173
0.52786,0.52786,0.25415,0.14663
0.52786,0.51808,0.25415,0.14663
0.48876,0.57674,0.24438,0.12708
0.47898,0.54741,0.2346,0.13685
0.43988,0.53763,0.21505,0.1173
0.43988,0.52786,0.22483,0.12708
0.43988,0.49853,0.2346,0.13685
0.45943,0.49853,0.21505,0.13685
0.43011,0.57674,0.24438,0.12708
0.47898,0.55718,0.25415,0.1173
0.43988,0.57674,0.26393,0.1173
0.47898,0.49853,0.24438,0.1173
0.45943,0.54741,0.2346,0.10753
0.43011,0.62561,0.2346,0.10753
0.41056,0.58651,0.21505,0.12708
0.40078,0.53763,0.20528,0.12708
0.59629,0.52786,0.1955,0.12708
0.65494,0.50831,0.1955,0.12708
0.66471,0.51808,0.20528,0.12708
0.68426,0.52786,0.21505,0.1173
0.67449,0.57674,0.20528,0.13685
0.60606,0.52786,0.20528,0.12708
0.54741,0.47898,0.22483,0.14663
0.59629,0.45943,0.1955,0.14663
0.57674,0.42033,0.21505,0.1564
0.51808,0.42033,0.20528,0.14663
0.46921,0.45943,0.21505,0.16618
0.49853,0.44966,0.20528,0.1564
0.46921,0.39101,0.24438,0.16618
0.49853,0.37146,0.25415,0.14663
0.51808,0.40078,0.29326,0.1564
0.44966,0.38123,0.28348,0.16618
0.40078,0.35191,0.34213,0.17595
0.38123,0.34213,0.36168,0.16618
0.38123,0.34213,0.32258,0.16618
0.43988,0.31281,0.33236,0.14663
0.40078,0.31281,0.31281,0.1564
0.41056,0.34213,0.2737,0.18573
0.39101,0.33236,0.25415,0.18573
0.38123,0.31281,0.26393,0.1564
0.38123,0.29326,0.24438,0.16618
0.38123,0.26393,0.24438,0.20528
0.38123,0.26393,0.25415,0.1955
0.39101,0.28348,0.25415,0.18573
0.38123,0.26393,0.25415,0.1955
0.35191,0.24438,0.22483,0.21505
0.35191,0.2346,0.21505,0.22483
0.37146,0.24438,0.21505,0.1955
0.38123,0.2346,0.25415,0.24438
0.43011,0.22483,0.24438,0.26393
0.39101,0.21505,0.25415,0.26393
0.36168,0.22483,0.26393,0.28348
0.33236,0.22483,0.24438,0.30303
0.31281,0.2346,0.25415,0.28348
0.29326,0.2346,0.25415,0.31281
0.26393,0.21505,0.2737,0.32258
0.30303,0.21505,0.28348,0.35191
0.30303,0.21505,0.32258,0.42033
0.31281,0.21505,0.33236,0.41056
0.28348,0.22483,0.33236,0.39101
0.30303,0.21505,0.40078,0.43011
0.29326,0.20528,0.62561,0.42033
0.34213,0.18573,0.65494,0.42033
0.36168,0.18573,0.68426,0.42033
0.39101,0.20528,0.66471,0.41056
0.43011,0.1955,0.63539,0.37146
0.42033,0.1955,0.61584,0.40078
0.45943,0.1955,0.64516,0.46921
0.47898,0.1955,0.71359,0.45943
0.48876,0.21505,0.68426,0.41056
0.57674,0.20528,0.74291,0.37146
0.62561,0.1955,0.67449,0.39101
0.74291,0.18573,0.78201,0.38123
0.79179,0.18573,0.82111,0.40078
0.84066,0.16618,0.80156,0.41056
0.77224,0.16618,0.80156,0.45943
0.75269,0.1564,0.77224,0.45943
0.88954,0.14663,0.78201,0.43011
0.84066,0.17595,0.78201,0.39101
0.81134,0.16618,0.78201,0.39101
1.0655,0.1564,0.92864,0.40078
1.0948,0.14663,0.90909,0.37146
1.1144,0.16618,0.87977,0.40078
1.1437,0.16618,0.86999,0.49853
1.173,0.16618,0.85044,0.49853
1.085,0.1564,0.82111,0.45943
1.1144,0.14663,0.85044,0.45943
1.5249,0.14663,0.80156,0.44966
1.3685,0.14663,0.86022,0.46921
1.3392,0.14663,0.84066,0.44966
1.5054,0.13685,0.81134,0.41056
1.6325,0.14663,0.76246,0.43011
1.7302,0.13685,0.69404,0.40078
2.1017,0.12708,0.77224,0.43988
2.3558,0.13685,0.79179,0.56696
2.4438,0.12708,0.82111,0.74291
2.5415,0.1173,0.86999,0.82111
2.6197,0.1173,0.90909,0.76246
2.4145,0.1173,0.84066,0.71359
2.1505,0.1173,0.83089,0.72336
2.3167,0.1173,0.94819,0.64516
2.131,0.10753,0.98729,0.64516
1.955,0.10753,0.91887,0.62561
1.8964,0.10753,0.89932,0.63539
1.9257,0.1173,0.92864,0.72336
1.8964,0.12708,0.92864,0.75269
1.9062,0.12708,0.91887,0.77224
1.7693,0.1173,0.99707,0.85044
1.6422,0.12708,0.89932,0.85044
1.5054,0.13685,0.81134,0.89932
1.5249,0.1173,0.81134,0.96774
1.5347,0.12708,0.76246,0.98729
1.4565,0.1173,0.67449,0.92864
1.437,0.1173,0.64516,0.98729
1.2317,0.1173,0.63539,0.90909
1.085,0.10753,0.66471,0.87977
1.0557,0.12708,0.60606,0.90909
0.94819,0.12708,0.66471,1.0557
0.79179,0.1173,0.66471,1.0362
0.70381,0.1173,0.72336,1.0166
0.68426,0.1173,0.73314,1.0459
0.56696,0.13685,0.74291,1.1632
0.46921,0.14663,0.67449,1.1437
0.45943,0.18573,0.67449,1.3196
0.41056,0.1955,0.69404,1.3001
0.34213,0.1955,0.62561,1.3392
0.29326,0.1955,0.52786,1.2805
0.26393,0.18573,0.44966,1.2317
0.2346,0.20528,0.40078,1.2023
0.20528,0.21505,0.38123,1.1828
0.1955,0.22483,0.40078,1.3587
0.20528,0.2346,0.41056,1.3685
0.24438,0.26393,0.37146,1.4076
0.22483,0.28348,0.31281,1.3196
0.28348,0.31281,0.2737,1.3587
0.29326,0.34213,0.24438,1.2512
0.2737,0.38123,0.25415,1.3001
0.2737,0.36168,0.26393,1.2317
0.35191,0.34213,0.2346,1.2414
0.33236,0.33236,0.25415,1.4467
0.32258,0.36168,0.36168,1.3685
0.31281,0.39101,0.44966,1.4663
0.34213,0.46921,0.43988,1.5347
0.33236,0.44966,0.37146,1.4858
0.36168,0.46921,0.42033,1.564
0.41056,0.46921,0.46921,1.7107
0.43988,0.50831,0.44966,1.7302
0.47898,0.55718,0.39101,1.5934
0.46921,0.59629,0.37146,1.5054
0.47898,0.62561,0.32258,1.4761
0.43011,0.64516,0.29326,1.4076
0.38123,0.71359,0.2737,1.349
0.40078,0.72336,0.26393,1.2903
0.39101,0.84066,0.26393,1.1535
0.41056,0.86999,0.29326,1.0753
0.43988,0.94819,0.30303,0.98729
0.46921,1.0068,0.35191,0.97752
0.44966,0.97752,0.36168,0.92864
0.44966,1.0068,0.36168,0.92864
0.52786,0.92864,0.40078,0.83089
0.49853,0.90909,0.40078,0.76246
0.51808,0.85044,0.43011,0.77224
0.51808,0.93842,0.53763,0.71359
0.46921,0.98729,0.58651,0.58651
0.55718,1.0362,0.56696,0.56696
0.54741,1.173,0.59629,0.51808
0.51808,1.261,0.55718,0.43011
0.51808,1.349,0.62561,0.37146
0.52786,1.3294,0.61584,0.43988
0.47898,1.2512,0.60606,0.41056
0.44966,1.2708,0.60606,0.44966
0.52786,1.2708,0.61584,0.45943
0.59629,1.3294,0.66471,0.51808
0.57674,1.3196,0.64516,0.56696
0.51808,1.261,0.57674,0.52786
0.47898,1.1828,0.57674,0.48876
0.46921,1.1437,0.52786,0.47898
0.48876,1.1046,0.54741,0.46921
0.50831,1.0068,0.54741,0.46921
0.57674,0.87977,0.59629,0.46921
0.58651,0.79179,0.66471,0.42033
0.53763,0.77224,0.72336,0.41056
0.55718,0.70381,0.71359,0.42033
0.49853,0.60606,0.66471,0.41056
0.45943,0.55718,0.61584,0.43988
0.51808,0.49853,0.55718,0.43988
0.51808,0.43988,0.50831,0.43988
0.57674,0.40078,0.46921,0.46921
0.53763,0.39101,0.49853,0.54741
0.61584,0.36168,0.50831,0.52786
0.65494,0.34213,0.47898,0.49853
0.59629,0.34213,0.45943,0.44966
0.58651,0.30303,0.48876,0.47898
0.53763,0.26393,0.45943,0.49853
0.52786,0.25415,0.47898,0.43988
0.50831,0.26393,0.44966,0.41056
0.51808,0.2346,0.42033,0.40078
0.47898,0.21505,0.45943,0.38123
0.48876,0.1955,0.50831,0.37146
0.43988,0.18573,0.48876,0.37146
0.43011,0.17595,0.49853,0.35191
0.42033,0.16618,0.48876,0.34213
0.44966,0.1564,0.48876,0.37146
0.45943,0.18573,0.46921,0.40078
0.43988,0.18573,0.43011,0.36168
0.43988,0.18573,0.43011,0.35191
0.41056,0.18573,0.40078,0.32258
0.39101,0.18573,0.38123,0.32258
0.40078,0.1955,0.38123,0.31281
0.38123,0.22483,0.36168,0.30303
0.37146,0.26393,0.36168,0.29326
0.38123,0.26393,0.36168,0.2737
0.37146,0.29326,0.36168,0.2737
0.37146,0.36168,0.38123,0.29326
0.37146,0.38123,0.36168,0.36168
0.37146,0.38123,0.37146,0.34213
0.34213,0.41056,0.40078,0.31281
0.36168,0.38123,0.39101,0.32258
0.39101,0.42033,0.38123,0.38123
0.36168,0.43988,0.34213,0.37146
0.34213,0.44966,0.37146,0.34213
0.36168,0.45943,0.37146,0.33236
0.40078,0.43988,0.38123,0.30303
0.36168,0.47898,0.37146,0.30303
0.32258,0.44966,0.33236,0.31281
0.34213,0.39101,0.33236,0.40078
0.35191,0.43988,0.33236,0.43011
0.36168,0.42033,0.33236,0.41056
0.38123,0.37146,0.32258,0.38123
0.35191,0.39101,0.36168,0.35191
0.33236,0.37146,0.34213,0.32258
0.30303,0.38123,0.32258,0.29326
0.31281,0.34213,0.33236,0.30303
0.34213,0.33236,0.31281,0.31281
0.37146,0.32258,0.32258,0.32258
0.38123,0.31281,0.32258,0.2737
0.40078,0.35191,0.29326,0.33236
0.35191,0.38123,0.26393,0.29326
0.37146,0.40078,0.25415,0.25415
0.37146,0.36168,0.26393,0.2737
0.32258,0.35191,0.25415,0.32258
0.29326,0.34213,0.24438,0.34213
0.31281,0.32258,0.26393,0.36168
0.32258,0.36168,0.28348,0.37146
0.31281,0.38123,0.26393,0.40078
0.37146,0.36168,0.29326,0.39101
0.34213,0.39101,0.31281,0.43011
0.30303,0.39101,0.30303,0.39101
0.33236,0.35191,0.30303,0.38123
0.34213,0.36168,0.30303,0.41056
0.33236,0.35191,0.31281,0.38123
0.30303,0.35191,0.29326,0.36168
0.26393,0.31281,0.30303,0.43011
0.24438,0.30303,0.30303,0.41056
0.2346,0.34213,0.29326,0.40078
0.25415,0.33236,0.29326,0.42033
0.26393,0.36168,0.28348,0.51808
0.25415,0.34213,0.2737,0.48876
0.21505,0.34213,0.25415,0.45943
0.26393,0.36168,0.24438,0.52786
0.26393,0.34213,0.2346,0.53763
0.22483,0.34213,0.26393,0.51808
0.18573,0.35191,0.2737,0.47898
0.2346,0.33236,0.30303,0.45943
0.2346,0.31281,0.31281,0.50831
0.2346,0.30303,0.33236,0.57674
0.2346,0.29326,0.31281,0.54741
0.22483,0.26393,0.34213,0.51808
0.24438,0.25415,0.31281,0.55718
0.2346,0.24438,0.32258,0.57674
0.21505,0.24438,0.31281,0.53763
0.22483,0.2346,0.32258,0.48876
0.20528,0.25415,0.32258,0.45943
0.2346,0.24438,0.31281,0.47898
0.2346,0.22483,0.28348,0.46921
0.22483,0.25415,0.28348,0.43988
0.29326,0.22483,0.28348,0.45943
0.28348,0.20528,0.26393,0.55718
0.30303,0.21505,0.29326,0.55718
0.36168,0.22483,0.29326,0.60606
0.35191,0.22483,0.28348,0.57674
0.31281,0.21505,0.26393,0.63539
0.37146,0.21505,0.26393,0.68426
0.42033,0.21505,0.2737,0.69404
0.54741,0.22483,0.2737,0.71359
0.57674,0.22483,0.29326,0.81134
0.60606,0.21505,0.28348,0.83089
0.63539,0.21505,0.2737,0.80156
0.63539,0.1955,0.29326,0.80156
0.77224,0.1955,0.33236,0.99707
0.74291,0.18573,0.34213,1.0264
0.67449,0.16618,0.38123,1.2512
0.75269,0.1564,0.40078,1.2708
0.83089,0.1564,0.43011,1.2805
0.90909,0.16618,0.41056,1.349
0.96774,0.18573,0.44966,1.4663
1.0459,0.17595,0.43988,1.652
1.2023,0.1955,0.43011,1.6129
1.3881,0.20528,0.43988,1.6129
1.3587,0.18573,0.45943,1.5934
1.3392,0.16618,0.59629,1.5054
1.3099,0.1564,0.62561,1.6422
1.4174,0.17595,0.60606,1.6422
1.6031,0.16618,0.59629,1.4467
1.6031,0.1564,0.66471,1.3881
1.7302,0.16618,0.76246,1.6618
1.7107,0.1564,0.75269,1.6422
1.564,0.1564,0.86999,1.8377
1.6325,0.1564,0.87977,1.8964
1.4956,0.16618,1.0557,1.7986
1.6227,0.1564,1.0459,1.9941
1.5054,0.1564,1.0264,1.9746
1.5543,0.1564,1.0264,1.7009
1.4565,0.1564,1.0068,1.4663
1.5934,0.1564,0.96774,1.3099
1.5445,0.16618,1.1241,1.3783
1.6031,0.14663,1.0264,1.2708
1.652,0.14663,0.97752,1.0948
1.564,0.14663,0.94819,1.3196
1.6422,0.13685,0.87977,1.3196
1.4956,0.13685,0.83089,1.1437
1.4467,0.14663,0.78201,1.1144
1.3001,0.13685,0.74291,1.0459
1.2023,0.14663,0.88954,0.90909
1.2317,0.14663,1.0362,0.88954
1.2317,0.14663,1.0459,0.76246
1.0753,0.14663,1.0557,0.68426
0.89932,0.14663,1.0166,0.68426
0.82111,0.16618,1.0264,0.59629
0.69404,0.16618,0.95797,0.51808
0.59629,0.16618,0.82111,0.44966
0.49853,0.16618,0.92864,0.43988
0.50831,0.1564,0.94819,0.40078
0.44966,0.1564,0.97752,0.36168
0.43011,0.16618,1.0068,0.45943
0.43988,0.1564,1.0557,0.43988
0.41056,0.14663,1.0557,0.49853
0.40078,0.1564,1.0068,0.51808
0.43011,0.1564,1.0557,0.50831
0.41056,0.16618,0.96774,0.63539
0.42033,0.16618,0.89932,0.57674
0.38123,0.1955,0.89932,0.64516
0.46921,0.1955,0.86022,0.61584
0.46921,0.20528,0.79179,0.56696
0.42033,0.2346,0.73314,0.57674
0.45943,0.25415,0.68426,0.54741
0.48876,0.26393,0.63539,0.55718
0.48876,0.26393,0.61584,0.47898
0.57674,0.29326,0.60606,0.49853
0.56696,0.2737,0.56696,0.44966
0.61584,0.2737,0.58651,0.43011
0.68426,0.29326,0.56696,0.45943
0.59629,0.28348,0.49853,0.43011
0.52786,0.29326,0.44966,0.43011
0.59629,0.2737,0.39101,0.39101
0.56696,0.2737,0.36168,0.37146
0.60606,0.30303,0.46921,0.39101
0.54741,0.35191,0.57674,0.39101
0.55718,0.36168,0.51808,0.39101
0.54741,0.40078,0.43988,0.43011
0.51808,0.42033,0.51808,0.47898
0.50831,0.43988,0.60606,0.56696
0.49853,0.50831,0.62561,0.54741
0.47898,0.68426,0.62561,0.54741
0.48876,0.77224,0.55718,0.54741
0.46921,0.79179,0.48876,0.55718
0.43988,0.82111,0.48876,0.48876
0.45943,0.90909,0.46921,0.46921
0.46921,0.93842,0.43011,0.56696
0.48876,0.97752,0.40078,0.60606
0.52786,0.91887,0.36168,0.57674
0.47898,0.94819,0.35191,0.53763
0.43988,0.92864,0.32258,0.58651
0.41056,0.93842,0.32258,0.69404
0.38123,0.90909,0.31281,0.61584
0.34213,0.92864,0.28348,0.57674
0.33236,1.085,0.30303,0.63539
0.31281,1.1144,0.30303,0.62561
0.30303,1.1046,0.32258,0.57674
0.30303,1.0948,0.34213,0.50831
0.31281,1.1535,0.34213,0.45943
0.30303,1.0753,0.45943,0.43011
0.30303,1.173,0.43011,0.40078
0.36168,1.2023,0.42033,0.41056
0.32258,1.1632,0.41056,0.39101
0.34213,1.1828,0.40078,0.36168
0.36168,1.1437,0.40078,0.37146
0.33236,1.0655,0.41056,0.33236
0.34213,1.2512,0.41056,0.35191
0.34213,1.1144,0.44966,0.33236
0.31281,1.0362,0.47898,0.30303
0.30303,1.0459,0.53763,0.30303
0.30303,0.92864,0.53763,0.29326
0.31281,0.80156,0.49853,0.28348
0.29326,0.72336,0.54741,0.36168
0.28348,0.77224,0.63539,0.34213
0.32258,0.77224,0.62561,0.30303
0.33236,0.70381,0.63539,0.29326
0.34213,0.60606,0.71359,0.31281
0.34213,0.53763,0.85044,0.32258
0.33236,0.47898,0.78201,0.34213
0.30303,0.44966,0.90909,0.39101
0.29326,0.43988,0.88954,0.45943
0.28348,0.40078,0.82111,0.44966
0.2737,0.40078,0.77224,0.49853
0.32258,0.36168,0.72336,0.57674
0.34213,0.33236,0.70381,0.52786
0.39101,0.31281,0.76246,0.47898
0.39101,0.28348,0.70381,0.43988
0.39101,0.29326,0.63539,0.41056
0.38123,0.2737,0.66471,0.43988
0.36168,0.24438,0.66471,0.41056
0.34213,0.22483,0.61584,0.37146
0.41056,0.21505,0.62561,0.39101
0.43988,0.20528,0.62561,0.40078
0.48876,0.20528,0.59629,0.40078
0.47898,0.1955,0.62561,0.38123
0.46921,0.20528,0.57674,0.41056
0.48876,0.18573,0.54741,0.41056
0.43011,0.17595,0.53763,0.37146
0.43011,0.16618,0.57674,0.33236
0.41056,0.18573,0.53763,0.33236
0.41056,0.16618,0.48876,0.35191
0.44966,0.16618,0.52786,0.34213
0.50831,0.1955,0.55718,0.36168
0.49853,0.20528,0.48876,0.40078
0.48876,0.22483,0.49853,0.37146
0.48876,0.24438,0.55718,0.39101
0.44966,0.24438,0.60606,0.46921
0.39101,0.26393,0.63539,0.44966
0.38123,0.29326,0.69404,0.47898
0.35191,0.28348,0.62561,0.47898
0.40078,0.29326,0.58651,0.47898
0.48876,0.2737,0.61584,0.50831
0.54741,0.30303,0.57674,0.52786
0.60606,0.32258,0.59629,0.62561
0.57674,0.32258,0.63539,0.61584
0.60606,0.31281,0.60606,0.71359
0.67449,0.32258,0.54741,0.72336
0.68426,0.42033,0.52786,0.72336
0.62561,0.41056,0.50831,0.71359
0.65494,0.38123,0.47898,0.59629
0.59629,0.38123,0.43011,0.70381
0.60606,0.43988,0.40078,0.72336
0.68426,0.42033,0.39101,0.69404
0.58651,0.42033,0.39101,0.66471
0.60606,0.42033,0.40078,0.64516
0.61584,0.41056,0.38123,0.60606
0.68426,0.42033,0.36168,0.61584
0.61584,0.44966,0.38123,0.60606
0.61584,0.46921,0.37146,0.65494
0.56696,0.43011,0.44966,0.62561
0.51808,0.39101,0.41056,0.57674
0.55718,0.38123,0.38123,0.54741
0.55718,0.36168,0.38123,0.52786
0.53763,0.33236,0.44966,0.46921
0.50831,0.33236,0.46921,0.45943
0.52786,0.31281,0.45943,0.44966
0.49853,0.29326,0.43011,0.51808
0.44966,0.31281,0.42033,0.54741
0.38123,0.32258,0.43011,0.51808
0.37146,0.32258,0.39101,0.49853
0.35191,0.34213,0.42033,0.48876
0.40078,0.36168,0.40078,0.47898
0.40078,0.35191,0.35191,0.46921
0.44966,0.34213,0.35191,0.47898
0.43988,0.37146,0.33236,0.43988
0.41056,0.35191,0.31281,0.44966
0.38123,0.34213,0.29326,0.44966
0.39101,0.37146,0.25415,0.47898
0.40078,0.39101,0.26393,0.51808
0.42033,0.36168,0.31281,0.48876
0.41056,0.36168,0.31281,0.43011
0.39101,0.32258,0.32258,0.42033
0.39101,0.31281,0.32258,0.38123
0.37146,0.31281,0.30303,0.36168
0.39101,0.32258,0.33236,0.43988
0.36168,0.29326,0.33236,0.42033
0.34213,0.25415,0.33236,0.41056
0.32258,0.25415,0.30303,0.37146
0.35191,0.26393,0.30303,0.35191
0.37146,0.2737,0.30303,0.39101
0.31281,0.26393,0.31281,0.36168
0.29326,0.2737,0.29326,0.43011
0.28348,0.24438,0.28348,0.42033
0.26393,0.25415,0.2737,0.49853
0.26393,0.26393,0.29326,0.46921
0.31281,0.25415,0.28348,0.55718
0.30303,0.22483,0.2737,0.62561
0.36168,0.2346,0.24438,0.71359
0.38123,0.2346,0.25415,0.69404
0.40078,0.2346,0.24438,0.63539
0.35191,0.21505,0.22483,0.57674
0.29326,0.21505,0.21505,0.52786
0.2737,0.21505,0.20528,0.52786
0.26393,0.20528,0.1955,0.74291
0.2346,0.21505,0.20528,0.81134
0.2346,0.21505,0.20528,0.98729
0.26393,0.20528,0.22483,1.0362
0.29326,0.20528,0.2346,0.87977
0.2737,0.18573,0.24438,0.88954
0.29326,0.18573,0.26393,1.0753
0.32258,0.1955,0.2737,1.1535
0.33236,0.20528,0.2737,1.0068
0.44966,0.20528,0.29326,1.0362
0.49853,0.1955,0.29326,1.085
0.49853,0.1955,0.28348,1.2512
0.52786,0.18573,0.29326,1.2414
0.50831,0.17595,0.34213,1.1339
0.54741,0.17595,0.35191,1.4174
0.60606,0.16618,0.40078,1.349
0.67449,0.1564,0.37146,1.4076
0.75269,0.1564,0.42033,1.5445
0.80156,0.16618,0.41056,1.5347
0.99707,0.16618,0.41056,1.6031
1.3099,0.1564,0.42033,1.7693
1.2023,0.16618,0.43988,1.7693
1.2414,0.16618,0.53763,1.7009
1.3196,0.1564,0.51808,1.5934
1.3978,0.1564,0.65494,1.5934
1.4272,0.1564,0.69404,1.5347
1.7009,0.14663,0.72336,1.5836
1.8866,0.13685,0.71359,1.4956
1.7498,0.13685,0.72336,1.4663
1.6031,0.14663,0.68426,1.4272
1.74,0.14663,0.67449,1.4076
1.7204,0.16618,0.67449,1.5152
1.7791,0.16618,0.85044,1.4076
1.8475,0.1564,0.93842,1.4761
2.1603,0.1564,0.88954,1.3294
2.2972,0.1564,0.96774,1.1535
2.0332,0.1564,1.0753,1.3001
2.1408,0.14663,1.1241,1.3294
1.9648,0.14663,1.1339,1.2023
1.9746,0.16618,0.99707,1.1632
1.9648,0.1564,0.93842,1.2414
1.9062,0.1564,0.90909,1.2512
1.955,0.16618,0.87977,1.1241
1.652,0.1564,0.83089,1.0166
1.5249,0.13685,0.76246,1.0264
1.4956,0.13685,0.84066,0.93842
1.8377,0.14663,0.83089,1.0166
1.955,0.13685,0.82111,0.85044
2.2483,0.14663,0.79179,0.75269
2.346,0.14663,0.82111,0.72336
2.2972,0.14663,0.77224,0.63539
2.043,0.14663,0.75269,0.53763
1.9746,0.1564,0.75269,0.51808
1.8182,0.16618,0.77224,0.46921
1.5738,0.1564,0.81134,0.42033
1.4663,0.1564,0.82111,0.39101
1.261,0.14663,0.88954,0.37146
1.0264,0.1564,0.83089,0.41056
0.82111,0.14663,0.86999,0.41056
0.70381,0.1564,0.85044,0.40078
0.57674,0.1564,0.86999,0.41056
0.46921,0.16618,0.93842,0.36168
0.40078,0.1564,0.93842,0.37146
0.34213,0.1564,0.86999,0.35191
0.29326,0.16618,0.77224,0.33236
0.26393,0.1564,0.67449,0.34213
0.24438,0.14663,0.59629,0.36168
0.2737,0.14663,0.56696,0.35191
0.24438,0.14663,0.51808,0.38123
0.20528,0.13685,0.45943,0.35191
0.1955,0.12708,0.42033,0.35191
0.18573,0.12708,0.43011,0.32258
0.1955,0.1173,0.44966,0.36168
0.2346,0.12708,0.45943,0.37146
0.22483,0.12708,0.43988,0.35191
0.21505,0.12708,0.40078,0.38123
0.2346,0.12708,0.41056,0.39101
0.25415,0.12708,0.40078,0.46921
0.26393,0.13685,0.44966,0.49853
0.30303,0.13685,0.49853,0.54741
0.28348,0.14663,0.45943,0.48876
0.29326,0.1564,0.44966,0.44966
0.34213,0.18573,0.45943,0.45943
0.32258,0.20528,0.47898,0.44966
0.34213,0.22483,0.45943,0.42033
0.34213,0.24438,0.40078,0.41056
0.33236,0.26393,0.34213,0.42033
0.36168,0.25415,0.30303,0.37146
0.36168,0.26393,0.26393,0.33236
0.36168,0.2737,0.2346,0.34213
0.37146,0.28348,0.21505,0.34213
