0.029326,0.068426,0.039101,0.1955
0.28348,1.1926,0.61584,0.82111
0.2346,0.94819,0.50831,1.1046
0.1955,0.77224,0.41056,1.2317
0.16618,0.61584,0.34213,1.2708
0.13685,0.49853,0.28348,1.173
0.1173,0.40078,0.24438,0.95797
0.1173,0.33236,0.20528,0.81134
0.10753,0.2737,0.18573,0.67449
0.10753,0.22483,0.16618,0.55718
0.097752,0.1955,0.16618,0.46921
0.097752,0.16618,0.1564,0.40078
0.097752,0.14663,0.14663,0.33236
0.10753,0.13685,0.13685,0.28348
0.14663,0.12708,0.12708,0.2346
0.18573,0.1173,0.10753,0.21505
0.26393,0.1173,0.097752,0.1955
0.38123,0.097752,0.097752,0.17595
0.37146,0.087977,0.1173,0.1564
0.34213,0.087977,0.1173,0.12708
0.28348,0.087977,0.12708,0.10753
0.24438,0.087977,0.12708,0.097752
0.1955,0.087977,0.12708,0.087977
0.16618,0.078201,0.1173,0.078201
0.14663,0.078201,0.1173,0.068426
0.12708,0.068426,0.12708,0.068426
0.1173,0.068426,0.12708,0.058651
0.12708,0.068426,0.1173,0.058651
0.14663,0.058651,0.12708,0.058651
0.1564,0.058651,0.12708,0.048876
0.1564,0.058651,0.12708,0.039101
0.14663,0.058651,0.1173,0.039101
0.17595,0.058651,0.1173,0.039101
0.16618,0.048876,0.14663,0.039101
0.1564,0.058651,0.12708,0.039101
0.14663,0.058651,0.1173,0.039101
0.17595,0.058651,0.1173,0.039101
0.1564,0.068426,0.12708,0.039101
0.13685,0.068426,0.14663,0.039101
0.16618,0.068426,0.14663,0.029326
0.28348,0.068426,0.14663,0.029326
0.32258,0.068426,0.16618,0.039101
0.2737,0.068426,0.17595,0.039101
0.25415,0.068426,0.17595,0.039101
0.25415,0.078201,0.16618,0.029326
0.24438,0.068426,0.1564,0.029326
0.20528,0.058651,0.14663,0.029326
0.17595,0.068426,0.14663,0.029326
0.14663,0.068426,0.12708,0.029326
0.1173,0.058651,0.1173,0.029326
0.12708,0.058651,0.1173,0.039101
0.13685,0.058651,0.10753,0.039101
0.1564,0.058651,0.1173,0.039101
0.17595,0.058651,0.097752,0.048876
0.18573,0.058651,0.087977,0.039101
0.18573,0.058651,0.087977,0.039101
0.1955,0.058651,0.078201,0.048876
0.16618,0.058651,0.078201,0.048876
0.13685,0.068426,0.087977,0.048876
0.1173,0.058651,0.087977,0.068426
0.097752,0.068426,0.078201,0.068426
0.087977,0.068426,0.078201,0.078201
0.078201,0.058651,0.097752,0.078201
0.068426,0.068426,0.087977,0.097752
0.078201,0.068426,0.078201,0.1173
0.10753,0.068426,0.078201,0.14663
0.097752,0.078201,0.097752,0.1564
0.097752,0.068426,0.097752,0.21505
0.078201,0.078201,0.097752,0.22483
0.068426,0.068426,0.097752,0.21505
0.068426,0.058651,0.10753,0.20528
0.078201,0.068426,0.087977,0.18573
0.097752,0.068426,0.097752,0.18573
0.10753,0.058651,0.097752,0.22483
0.1173,0.058651,0.087977,0.22483
0.14663,0.048876,0.097752,0.22483
0.13685,0.048876,0.10753,0.32258
0.1173,0.048876,0.1173,0.29326
0.10753,0.048876,0.10753,0.2737
0.10753,0.048876,0.097752,0.2346
0.097752,0.048876,0.097752,0.20528
0.078201,0.048876,0.097752,0.22483
0.068426,0.048876,0.097752,0.2737
0.058651,0.048876,0.087977,0.25415
0.058651,0.039101,0.078201,0.2346
0.039101,0.039101,0.087977,0.20528
0.039101,0.039101,0.087977,0.17595
0.048876,0.039101,0.10753,0.16618
0.068426,0.029326,0.1173,0.18573
0.068426,0.039101,0.1173,0.17595
0.058651,0.039101,0.1173,0.1564
0.058651,0.039101,0.1173,0.14663
0.048876,0.029326,0.1173,0.12708
0.039101,0.029326,0.1173,0.12708
0.048876,0.029326,0.10753,0.10753
0.058651,0.029326,0.097752,0.097752
0.058651,0.029326,0.087977,0.087977
0.058651,0.039101,0.087977,0.087977
0.058651,0.029326,0.087977,0.078201
0.058651,0.029326,0.087977,0.068426
0.048876,0.039101,0.087977,0.068426
0.048876,0.029326,0.078201,0.058651
0.039101,0.029326,0.078201,0.048876
0.039101,0.039101,0.087977,0.048876
0.048876,0.039101,0.10753,0.039101
0.039101,0.029326,0.1173,0.039101
0.058651,0.029326,0.10753,0.039101
0.058651,0.029326,0.12708,0.039101
0.058651,0.029326,0.1173,0.039101
0.068426,0.029326,0.097752,0.039101
0.078201,0.039101,0.097752,0.039101
0.087977,0.029326,0.097752,0.048876
0.087977,0.029326,0.087977,0.058651
0.087977,0.039101,0.087977,0.087977
0.097752,0.039101,0.087977,0.097752
0.10753,0.039101,0.10753,0.087977
0.1173,0.029326,0.097752,0.068426
0.1173,0.029326,0.097752,0.068426
0.1173,0.029326,0.087977,0.058651
0.12708,0.029326,0.078201,0.048876
0.1564,0.029326,0.068426,0.039101
0.1564,0.029326,0.13685,0.039101
0.1564,0.039101,0.18573,0.029326
0.14663,0.039101,0.20528,0.01955
0.1564,0.029326,0.16618,0.029326
0.1564,0.039101,0.16618,0.029326
0.1564,0.039101,0.1955,0.01955
0.14663,0.029326,0.25415,0.029326
0.14663,0.029326,0.25415,0.029326
0.13685,0.029326,0.2737,0.029326
0.13685,0.039101,0.37146,0.029326
0.12708,0.039101,0.44966,0.029326
0.13685,0.039101,0.50831,0.029326
0.14663,0.029326,0.48876,0.01955
0.13685,0.039101,0.43988,0.01955
0.12708,0.039101,0.36168,0.01955
0.10753,0.029326,0.33236,0.029326
0.1173,0.039101,0.29326,0.048876
0.1173,0.039101,0.28348,0.068426
0.12708,0.039101,0.28348,0.097752
0.10753,0.039101,0.30303,0.087977
0.10753,0.039101,0.39101,0.078201
0.1173,0.039101,0.35191,0.078201
0.097752,0.039101,0.33236,0.097752
0.10753,0.039101,0.37146,0.078201
0.10753,0.039101,0.50831,0.087977
0.1173,0.039101,0.66471,0.068426
0.14663,0.039101,0.60606,0.058651
0.12708,0.039101,0.52786,0.058651
0.12708,0.039101,0.45943,0.048876
0.13685,0.039101,0.38123,0.048876
0.12708,0.029326,0.32258,0.039101
0.1564,0.029326,0.28348,0.058651
0.16618,0.039101,0.26393,0.048876
0.1564,0.039101,0.22483,0.058651
0.1564,0.029326,0.20528,0.048876
0.13685,0.029326,0.17595,0.068426
0.13685,0.039101,0.16618,0.068426
0.1564,0.039101,0.1564,0.068426
0.14663,0.048876,0.13685,0.058651
0.13685,0.048876,0.12708,0.058651
0.1173,0.039101,0.12708,0.058651
0.12708,0.048876,0.14663,0.048876
0.1173,0.058651,0.14663,0.058651
0.10753,0.058651,0.12708,0.068426
0.097752,0.058651,0.1173,0.068426
0.097752,0.058651,0.097752,0.068426
0.087977,0.058651,0.078201,0.068426
0.078201,0.058651,0.078201,0.048876
0.087977,0.058651,0.078201,0.048876
0.097752,0.058651,0.068426,0.048876
0.097752,0.058651,0.058651,0.048876
0.10753,0.058651,0.058651,0.039101
0.097752,0.058651,0.068426,0.029326
0.10753,0.058651,0.068426,0.029326
0.1173,0.058651,0.078201,0.029326
0.1173,0.068426,0.068426,0.029326
0.17595,0.068426,0.078201,0.01955
0.26393,0.068426,0.068426,0.029326
0.37146,0.058651,0.078201,0.048876
0.33236,0.058651,0.068426,0.048876
0.29326,0.058651,0.058651,0.058651
0.25415,0.048876,0.068426,0.048876
0.2346,0.058651,0.058651,0.039101
0.21505,0.058651,0.087977,0.048876
0.18573,0.058651,0.078201,0.058651
0.16618,0.058651,0.078201,0.058651
0.14663,0.058651,0.10753,0.068426
0.14663,0.058651,0.13685,0.078201
0.1564,0.048876,0.13685,0.068426
0.1564,0.058651,0.14663,0.068426
0.1564,0.058651,0.16618,0.068426
0.1564,0.058651,0.18573,0.078201
0.2346,0.058651,0.21505,0.078201
0.28348,0.058651,0.22483,0.087977
0.2346,0.058651,0.20528,0.068426
0.21505,0.058651,0.18573,0.068426
0.2346,0.068426,0.20528,0.068426
0.25415,0.058651,0.17595,0.058651
0.24438,0.058651,0.1564,0.058651
0.21505,0.048876,0.24438,0.048876
0.17595,0.058651,0.31281,0.048876
0.16618,0.058651,0.29326,0.039101
0.18573,0.058651,0.24438,0.039101
0.18573,0.058651,0.21505,0.039101
0.1564,0.058651,0.18573,0.039101
0.12708,0.058651,0.17595,0.039101
0.1173,0.058651,0.18573,0.039101
0.10753,0.058651,0.18573,0.039101
0.078201,0.058651,0.16618,0.039101
0.078201,0.058651,0.17595,0.048876
0.078201,0.048876,0.18573,0.039101
0.087977,0.058651,0.18573,0.048876
0.10753,0.048876,0.17595,0.048876
0.10753,0.058651,0.16618,0.058651
0.097752,0.058651,0.14663,0.068426
0.10753,0.058651,0.13685,0.068426
0.097752,0.048876,0.13685,0.068426
0.087977,0.048876,0.14663,0.068426
0.097752,0.058651,0.13685,0.058651
0.097752,0.068426,0.14663,0.058651
0.087977,0.078201,0.17595,0.058651
0.068426,0.097752,0.1955,0.068426
0.068426,0.097752,0.17595,0.068426
0.068426,0.10753,0.18573,0.068426
0.058651,0.10753,0.18573,0.058651
0.048876,0.10753,0.16618,0.078201
0.039101,0.10753,0.17595,0.078201
0.039101,0.097752,0.17595,0.097752
0.048876,0.087977,0.14663,0.097752
0.048876,0.097752,0.14663,0.10753
0.039101,0.097752,0.1564,0.10753
0.039101,0.097752,0.16618,0.097752
0.058651,0.10753,0.14663,0.087977
0.058651,0.1173,0.14663,0.097752
0.068426,0.10753,0.13685,0.097752
0.087977,0.097752,0.13685,0.10753
0.097752,0.087977,0.1173,0.097752
0.087977,0.10753,0.12708,0.097752
0.078201,0.097752,0.13685,0.087977
0.068426,0.097752,0.13685,0.078201
0.058651,0.097752,0.13685,0.078201
0.058651,0.087977,0.13685,0.078201
0.058651,0.087977,0.16618,0.087977
0.058651,0.097752,0.14663,0.097752
0.068426,0.097752,0.1564,0.087977
0.068426,0.097752,0.13685,0.087977
0.087977,0.10753,0.14663,0.078201
0.097752,0.10753,0.13685,0.078201
0.087977,0.097752,0.13685,0.078201
0.087977,0.10753,0.13685,0.068426
0.078201,0.097752,0.14663,0.068426
0.078201,0.087977,0.13685,0.068426
0.068426,0.087977,0.14663,0.058651
0.058651,0.087977,0.14663,0.048876
0.048876,0.078201,0.13685,0.048876
0.048876,0.078201,0.12708,0.039101
0.048876,0.087977,0.12708,0.039101
0.048876,0.087977,0.1173,0.029326
0.039101,0.087977,0.10753,0.029326
0.058651,0.087977,0.10753,0.029326
0.048876,0.097752,0.10753,0.029326
0.039101,0.078201,0.10753,0.01955
0.039101,0.078201,0.1173,0.01955
0.039101,0.068426,0.1173,0.01955
0.039101,0.078201,0.10753,0.029326
0.048876,0.087977,0.097752,0.029326
0.058651,0.087977,0.097752,0.029326
0.058651,0.097752,0.097752,0.029326
0.058651,0.097752,0.087977,0.01955
0.048876,0.087977,0.087977,0.029326
0.058651,0.087977,0.087977,0.01955
0.068426,0.087977,0.087977,0.01955
0.078201,0.097752,0.068426,0.01955
0.078201,0.097752,0.078201,0.01955
0.078201,0.097752,0.078201,0.01955
0.078201,0.097752,0.087977,0.01955
0.097752,0.10753,0.078201,0.01955
0.1173,0.10753,0.078201,0.01955
0.1173,0.10753,0.087977,0.01955
0.10753,0.10753,0.097752,0.01955
0.12708,0.087977,0.087977,0.01955
0.1564,0.087977,0.087977,0.01955
0.22483,0.078201,0.097752,0.01955
0.26393,0.078201,0.078201,0.01955
0.22483,0.087977,0.097752,0.01955
0.21505,0.078201,0.1173,0.01955
0.20528,0.078201,0.12708,0.01955
0.17595,0.078201,0.13685,0.01955
0.14663,0.078201,0.13685,0.01955
0.12708,0.068426,0.14663,0.01955
0.10753,0.058651,0.16618,0.01955
0.097752,0.068426,0.18573,0.01955
0.097752,0.058651,0.17595,0.0097752
0.087977,0.058651,0.1564,0.01955
0.087977,0.078201,0.13685,0.01955
0.078201,0.058651,0.13685,0.01955
0.068426,0.058651,0.12708,0.01955
0.068426,0.058651,0.10753,0.01955
0.068426,0.048876,0.097752,0.01955
0.078201,0.058651,0.087977,0.029326
0.068426,0.048876,0.087977,0.029326
0.058651,0.058651,0.078201,0.029326
0.058651,0.048876,0.087977,0.029326
0.048876,0.058651,0.13685,0.039101
0.048876,0.058651,0.13685,0.039101
0.048876,0.058651,0.16618,0.039101
0.058651,0.058651,0.1955,0.029326
0.058651,0.058651,0.1955,0.029326
0.058651,0.058651,0.1955,0.039101
0.058651,0.058651,0.21505,0.039101
0.068426,0.058651,0.22483,0.029326
0.078201,0.068426,0.24438,0.029326
0.097752,0.058651,0.26393,0.029326
0.087977,0.068426,0.28348,0.029326
0.087977,0.068426,0.25415,0.01955
0.10753,0.058651,0.2346,0.0097752
0.10753,0.058651,0.22483,0.0097752
0.10753,0.048876,0.30303,0.01955
0.097752,0.048876,0.32258,0.0097752
0.078201,0.048876,0.36168,0.0097752
0.078201,0.048876,0.35191,0.0097752
0.078201,0.048876,0.32258,0.01955
0.097752,0.048876,0.28348,0.0097752
0.097752,0.039101,0.33236,0.01955
0.097752,0.048876,0.55718,0.0097752
0.097752,0.058651,0.73314,0.01955
0.10753,0.048876,0.72336,0.01955
0.087977,0.048876,0.61584,0.01955
0.087977,0.058651,0.54741,0.0097752
0.097752,0.048876,0.45943,0.0097752
0.10753,0.058651,0.38123,0.0097752
0.10753,0.068426,0.30303,0.0097752
0.097752,0.058651,0.25415,0.0097752
0.087977,0.068426,0.24438,0.0097752
0.087977,0.058651,0.21505,0.01955
0.21505,0.058651,0.22483,0.01955
0.34213,0.058651,0.18573,0.0097752
0.32258,0.048876,0.16618,0.0097752
0.28348,0.068426,0.13685,0.01955
0.24438,0.058651,0.13685,0.01955
0.21505,0.058651,0.13685,0.0097752
0.1955,0.068426,0.13685,0.01955
0.16618,0.068426,0.14663,0.01955
0.14663,0.068426,0.13685,0.01955
0.1173,0.068426,0.14663,0.01955
0.097752,0.068426,0.14663,0.01955
0.087977,0.058651,0.13685,0.01955
0.078201,0.068426,0.14663,0.029326
0.068426,0.058651,0.16618,0.01955
0.068426,0.058651,0.1564,0.01955
0.068426,0.058651,0.14663,0.029326
0.068426,0.058651,0.13685,0.01955
0.068426,0.058651,0.14663,0.029326
0.078201,0.058651,0.1564,0.01955
0.087977,0.048876,0.16618,0.01955
0.097752,0.068426,0.1564,0.039101
0.12708,0.068426,0.1564,0.039101
0.12708,0.068426,0.14663,0.039101
0.14663,0.058651,0.14663,0.039101
0.2346,0.048876,0.13685,0.029326
0.22483,0.058651,0.13685,0.039101
0.21505,0.058651,0.13685,0.029326
0.1955,0.058651,0.1564,0.029326
0.16618,0.058651,0.16618,0.029326
0.18573,0.058651,0.17595,0.029326
0.18573,0.068426,0.17595,0.029326
0.18573,0.058651,0.17595,0.029326
0.17595,0.058651,0.16618,0.029326
0.16618,0.068426,0.1564,0.039101
0.13685,0.058651,0.17595,0.039101
0.12708,0.058651,0.22483,0.039101
0.10753,0.058651,0.22483,0.039101
0.10753,0.068426,0.20528,0.048876
0.097752,0.058651,0.18573,0.058651
0.078201,0.058651,0.1564,0.058651
0.078201,0.058651,0.16618,0.068426
0.078201,0.058651,0.17595,0.058651
0.078201,0.058651,0.22483,0.078201
0.078201,0.058651,0.2737,0.12708
0.087977,0.058651,0.32258,0.16618
0.078201,0.058651,0.28348,0.17595
0.078201,0.058651,0.2346,0.1564
0.068426,0.058651,0.21505,0.13685
0.058651,0.058651,0.22483,0.1173
0.058651,0.068426,0.20528,0.10753
0.097752,0.058651,0.18573,0.1173
0.13685,0.068426,0.17595,0.10753
0.17595,0.058651,0.16618,0.10753
0.1955,0.068426,0.16618,0.10753
0.1955,0.068426,0.14663,0.12708
0.21505,0.078201,0.1564,0.14663
0.24438,0.078201,0.17595,0.17595
0.30303,0.068426,0.16618,0.16618
0.33236,0.068426,0.14663,0.14663
0.30303,0.068426,0.12708,0.12708
0.32258,0.068426,0.14663,0.10753
0.35191,0.068426,0.13685,0.087977
0.41056,0.068426,0.12708,0.078201
0.35191,0.068426,0.12708,0.068426
0.28348,0.068426,0.1173,0.068426
0.22483,0.068426,0.1173,0.068426
0.18573,0.068426,0.12708,0.068426
0.14663,0.068426,0.12708,0.058651
0.1173,0.068426,0.10753,0.058651
0.10753,0.058651,0.097752,0.048876
0.087977,0.068426,0.087977,0.048876
0.078201,0.068426,0.097752,0.048876
0.068426,0.068426,0.087977,0.048876
0.058651,0.068426,0.087977,0.039101
0.058651,0.058651,0.087977,0.039101
0.039101,0.078201,0.097752,0.039101
0.039101,0.068426,0.097752,0.039101
0.048876,0.068426,0.097752,0.039101
0.048876,0.068426,0.097752,0.039101
0.039101,0.068426,0.10753,0.039101
0.039101,0.068426,0.12708,0.039101
0.029326,0.068426,0.1173,0.048876
0.029326,0.058651,0.10753,0.078201
0.01955,0.058651,0.097752,0.087977
0.029326,0.068426,0.097752,0.087977
0.029326,0.078201,0.097752,0.078201
0.029326,0.068426,0.10753,0.068426
0.048876,0.078201,0.10753,0.068426
0.058651,0.078201,0.087977,0.058651
0.048876,0.078201,0.078201,0.058651
0.048876,0.068426,0.097752,0.048876
0.058651,0.068426,0.1173,0.048876
0.058651,0.058651,0.12708,0.048876
0.048876,0.058651,0.1173,0.039101
0.039101,0.048876,0.12708,0.029326
0.048876,0.048876,0.1173,0.029326
0.039101,0.048876,0.1173,0.01955
0.039101,0.048876,0.1173,0.029326
0.039101,0.048876,0.12708,0.029326
0.029326,0.048876,0.1564,0.029326
0.029326,0.048876,0.1564,0.029326
0.039101,0.048876,0.1564,0.01955
0.039101,0.048876,0.1564,0.01955
0.029326,0.048876,0.13685,0.01955
0.029326,0.048876,0.18573,0.01955
0.039101,0.048876,0.1955,0.029326
0.039101,0.048876,0.1955,0.029326
0.058651,0.048876,0.17595,0.01955
0.078201,0.058651,0.14663,0.01955
0.078201,0.048876,0.1173,0.01955
0.087977,0.048876,0.097752,0.01955
0.10753,0.048876,0.097752,0.029326
0.12708,0.048876,0.10753,0.01955
0.14663,0.039101,0.10753,0.01955
0.17595,0.048876,0.097752,0.01955
0.18573,0.039101,0.087977,0.029326
0.22483,0.039101,0.078201,0.039101
0.24438,0.039101,0.078201,0.029326
0.26393,0.039101,0.087977,0.029326
0.25415,0.039101,0.087977,0.029326
0.26393,0.029326,0.097752,0.029326
0.24438,0.029326,0.087977,0.029326
0.21505,0.029326,0.087977,0.01955
0.18573,0.039101,0.078201,0.039101
0.1564,0.039101,0.068426,0.048876
0.13685,0.029326,0.10753,0.048876
0.14663,0.029326,0.1173,0.039101
0.16618,0.029326,0.12708,0.039101
0.14663,0.039101,0.1173,0.039101
0.14663,0.039101,0.1173,0.029326
0.12708,0.039101,0.1173,0.029326
0.10753,0.039101,0.10753,0.029326
0.097752,0.039101,0.097752,0.029326
0.087977,0.039101,0.097752,0.01955
0.097752,0.039101,0.1173,0.01955
0.10753,0.039101,0.10753,0.01955
0.1173,0.029326,0.10753,0.01955
0.10753,0.029326,0.10753,0.01955
0.097752,0.039101,0.097752,0.01955
0.078201,0.029326,0.097752,0.029326
0.068426,0.029326,0.097752,0.029326
0.078201,0.029326,0.087977,0.01955
0.078201,0.029326,0.087977,0.01955
0.058651,0.029326,0.097752,0.01955
0.048876,0.029326,0.097752,0.0097752
0.058651,0.029326,0.097752,0.01955
0.058651,0.029326,0.13685,0.0097752
0.068426,0.029326,0.20528,0.0097752
0.087977,0.029326,0.25415,0.0097752
0.087977,0.01955,0.31281,0.0097752
0.087977,0.01955,0.38123,0.01955
0.078201,0.01955,0.40078,0.0097752
0.087977,0.01955,0.36168,0.0097752
0.087977,0.029326,0.35191,0.0097752
0.097752,0.01955,0.44966,0.0097752
0.10753,0.029326,0.43011,0.0097752
0.10753,0.029326,0.35191,0.01955
0.10753,0.01955,0.28348,0.01955
0.1173,0.029326,0.26393,0.01955
0.097752,0.01955,0.25415,0.01955
0.10753,0.01955,0.22483,0.01955
0.10753,0.029326,0.22483,0.01955
0.10753,0.01955,0.33236,0.029326
0.12708,0.029326,0.38123,0.029326
0.12708,0.029326,0.58651,0.029326
0.1173,0.01955,1.0166,0.01955
0.1173,0.029326,1.085,0.01955
0.12708,0.01955,0.98729,0.029326
0.13685,0.029326,0.88954,0.029326
0.1173,0.039101,0.76246,0.029326
0.10753,0.039101,0.61584,0.039101
0.10753,0.039101,0.48876,0.039101
0.087977,0.039101,0.40078,0.039101
0.087977,0.039101,0.37146,0.039101
0.078201,0.039101,0.36168,0.039101
0.068426,0.039101,0.30303,0.039101
0.078201,0.039101,0.26393,0.039101
0.078201,0.029326,0.22483,0.029326
0.078201,0.029326,0.18573,0.039101
0.078201,0.029326,0.17595,0.048876
0.078201,0.039101,0.1564,0.048876
0.078201,0.029326,0.1564,0.039101
0.068426,0.039101,0.16618,0.039101
0.078201,0.039101,0.17595,0.039101
0.078201,0.039101,0.1564,0.039101
0.078201,0.039101,0.14663,0.039101
0.078201,0.039101,0.12708,0.039101
0.078201,0.039101,0.1173,0.039101
0.087977,0.039101,0.1173,0.039101
0.078201,0.029326,0.1173,0.048876
0.078201,0.039101,0.14663,0.058651
0.087977,0.039101,0.1564,0.048876
0.097752,0.048876,0.1564,0.048876
0.097752,0.039101,0.13685,0.058651
0.1173,0.039101,0.1173,0.078201
0.10753,0.039101,0.1173,0.13685
0.10753,0.039101,0.097752,0.1564
0.097752,0.039101,0.1173,0.16618
0.078201,0.039101,0.10753,0.14663
0.078201,0.039101,0.1173,0.14663
0.068426,0.039101,0.1173,0.16618
0.068426,0.039101,0.1173,0.18573
0.078201,0.039101,0.1173,0.24438
0.078201,0.029326,0.12708,0.22483
0.078201,0.039101,0.14663,0.18573
0.078201,0.039101,0.1564,0.1564
0.068426,0.029326,0.14663,0.13685
0.087977,0.039101,0.13685,0.12708
0.097752,0.039101,0.13685,0.13685
0.087977,0.039101,0.1173,0.1564
0.097752,0.039101,0.13685,0.14663
0.10753,0.039101,0.17595,0.1173
0.087977,0.039101,0.1955,0.10753
0.087977,0.039101,0.17595,0.087977
0.068426,0.039101,0.16618,0.078201
0.058651,0.039101,0.18573,0.087977
0.048876,0.039101,0.18573,0.078201
0.039101,0.029326,0.20528,0.068426
0.039101,0.029326,0.21505,0.068426
0.039101,0.029326,0.21505,0.058651
0.048876,0.029326,0.28348,0.058651
0.039101,0.029326,0.37146,0.048876
0.087977,0.029326,0.36168,0.048876
0.10753,0.029326,0.37146,0.058651
0.13685,0.039101,0.33236,0.048876
0.14663,0.039101,0.30303,0.039101
0.16618,0.039101,0.2737,0.029326
0.16618,0.039101,0.24438,0.029326
0.17595,0.039101,0.20528,0.029326
0.17595,0.039101,0.18573,0.029326
0.20528,0.039101,0.1955,0.029326
0.16618,0.048876,0.2737,0.029326
0.13685,0.039101,0.38123,0.058651
0.1173,0.039101,0.32258,0.078201
0.10753,0.029326,0.2737,0.068426
0.087977,0.039101,0.2346,0.068426
0.078201,0.039101,0.20528,0.068426
0.058651,0.039101,0.18573,0.068426
0.058651,0.039101,0.17595,0.078201
0.058651,0.039101,0.1564,0.068426
0.058651,0.039101,0.14663,0.058651
0.058651,0.048876,0.13685,0.058651
0.048876,0.039101,0.13685,0.048876
0.048876,0.039101,0.12708,0.039101
0.058651,0.048876,0.13685,0.039101
0.068426,0.048876,0.12708,0.039101
0.068426,0.058651,0.10753,0.039101
0.058651,0.058651,0.10753,0.039101
0.048876,0.058651,0.10753,0.039101
0.048876,0.068426,0.10753,0.039101
0.039101,0.068426,0.087977,0.039101
0.039101,0.068426,0.078201,0.039101
0.029326,0.068426,0.097752,0.029326
0.029326,0.058651,0.10753,0.029326
0.039101,0.048876,0.097752,0.029326
0.039101,0.058651,0.10753,0.029326
0.039101,0.058651,0.097752,0.029326
0.029326,0.058651,0.087977,0.029326
0.029326,0.058651,0.087977,0.01955
0.039101,0.058651,0.087977,0.01955
0.039101,0.068426,0.087977,0.01955
0.039101,0.068426,0.087977,0.01955
0.029326,0.058651,0.087977,0.029326
0.029326,0.058651,0.087977,0.01955
0.029326,0.058651,0.097752,0.01955
0.01955,0.058651,0.097752,0.01955
0.01955,0.058651,0.087977,0.01955
0.01955,0.058651,0.10753,0.029326
0.01955,0.078201,0.1173,0.029326
0.029326,0.068426,0.097752,0.01955
0.029326,0.068426,0.087977,0.01955
0.029326,0.068426,0.097752,0.01955
0.029326,0.068426,0.1173,0.01955
0.039101,0.068426,0.1173,0.01955
0.048876,0.058651,0.1173,0.0097752
0.058651,0.058651,0.1173,0.01955
0.048876,0.058651,0.10753,0.0097752
0.048876,0.048876,0.097752,0.0097752
0.058651,0.048876,0.097752,0.0097752
0.058651,0.048876,0.12708,0.01955
0.068426,0.048876,0.1173,0.0097752
0.078201,0.048876,0.10753,0.0097752
0.078201,0.048876,0.097752,0.0097752
0.078201,0.048876,0.087977,0.01955
0.078201,0.048876,0.078201,0.01955
0.078201,0.048876,0.078201,0.01955
0.078201,0.048876,0.078201,0.029326
0.078201,0.058651,0.068426,0.039101
0.087977,0.048876,0.078201,0.029326
0.078201,0.048876,0.078201,0.029326
0.078201,0.048876,0.078201,0.029326
0.068426,0.048876,0.078201,0.039101
0.097752,0.058651,0.087977,0.039101
0.097752,0.048876,0.097752,0.039101
0.10753,0.058651,0.097752,0.039101
0.10753,0.048876,0.087977,0.039101
0.1173,0.048876,0.078201,0.039101
0.10753,0.039101,0.078201,0.039101
0.097752,0.039101,0.097752,0.029326
0.10753,0.039101,0.13685,0.029326
0.10753,0.039101,0.1955,0.029326
0.10753,0.039101,0.20528,0.029326
0.097752,0.039101,0.24438,0.029326
0.097752,0.029326,0.22483,0.029326
0.12708,0.029326,0.20528,0.01955
0.1173,0.029326,0.1955,0.01955
0.1173,0.039101,0.17595,0.01955
0.1173,0.039101,0.17595,0.01955
0.10753,0.039101,0.17595,0.029326
0.097752,0.039101,0.1564,0.01955
0.097752,0.039101,0.16618,0.01955
0.097752,0.039101,0.14663,0.01955
0.10753,0.029326,0.16618,0.01955
0.1173,0.039101,0.1564,0.01955
0.10753,0.029326,0.14663,0.01955
0.10753,0.039101,0.13685,0.029326
0.097752,0.039101,0.1173,0.029326
0.087977,0.048876,0.12708,0.01955
0.078201,0.039101,0.16618,0.029326
0.087977,0.039101,0.25415,0.029326
0.078201,0.039101,0.2737,0.029326
0.087977,0.029326,0.2346,0.029326
0.087977,0.029326,0.22483,0.029326
0.097752,0.029326,0.30303,0.029326
0.087977,0.039101,0.39101,0.029326
0.087977,0.039101,0.38123,0.029326
0.097752,0.039101,0.34213,0.029326
0.078201,0.039101,0.34213,0.039101
0.068426,0.039101,0.36168,0.039101
0.068426,0.039101,0.35191,0.039101
0.078201,0.039101,0.37146,0.039101
0.078201,0.039101,0.40078,0.039101
0.078201,0.048876,0.38123,0.048876
0.068426,0.048876,0.32258,0.048876
0.078201,0.048876,0.30303,0.048876
0.078201,0.048876,0.25415,0.058651
0.078201,0.048876,0.22483,0.048876
0.087977,0.048876,0.2346,0.048876
0.078201,0.048876,0.30303,0.048876
0.078201,0.039101,0.40078,0.048876
0.087977,0.039101,0.35191,0.048876
0.087977,0.039101,0.41056,0.058651
0.087977,0.039101,0.54741,0.058651
0.087977,0.039101,0.73314,0.048876
0.087977,0.039101,0.93842,0.058651
0.078201,0.029326,0.83089,0.068426
0.068426,0.039101,0.71359,0.068426
0.068426,0.039101,0.65494,0.058651
0.068426,0.039101,0.53763,0.068426
0.068426,0.039101,0.43988,0.087977
0.058651,0.029326,0.37146,0.10753
0.068426,0.029326,0.31281,0.10753
0.058651,0.039101,0.31281,0.087977
0.058651,0.039101,0.30303,0.078201
0.078201,0.039101,0.28348,0.087977
0.078201,0.048876,0.24438,0.078201
0.078201,0.048876,0.20528,0.068426
0.078201,0.058651,0.18573,0.058651
0.068426,0.058651,0.1955,0.048876
0.078201,0.058651,0.17595,0.058651
0.068426,0.058651,0.16618,0.048876
0.078201,0.048876,0.17595,0.058651
0.087977,0.048876,0.1564,0.048876
0.078201,0.048876,0.16618,0.058651
0.087977,0.048876,0.16618,0.068426
0.12708,0.048876,0.17595,0.068426
0.12708,0.058651,0.17595,0.078201
0.1173,0.058651,0.16618,0.078201
0.10753,0.048876,0.14663,0.078201
0.10753,0.048876,0.13685,0.078201
0.10753,0.048876,0.12708,0.078201
0.097752,0.048876,0.12708,0.058651
0.097752,0.058651,0.1173,0.048876
0.087977,0.048876,0.10753,0.048876
0.097752,0.048876,0.087977,0.039101
0.097752,0.048876,0.087977,0.029326
0.087977,0.058651,0.078201,0.029326
0.087977,0.048876,0.078201,0.039101
0.087977,0.048876,0.087977,0.039101
0.087977,0.048876,0.097752,0.029326
0.087977,0.048876,0.13685,0.029326
0.078201,0.048876,0.14663,0.029326
0.078201,0.048876,0.14663,0.029326
0.078201,0.048876,0.16618,0.01955
0.068426,0.039101,0.18573,0.01955
0.097752,0.039101,0.1955,0.01955
0.14663,0.048876,0.17595,0.01955
0.14663,0.048876,0.1955,0.029326
0.12708,0.039101,0.20528,0.01955
0.12708,0.039101,0.21505,0.029326
0.1173,0.048876,0.22483,0.029326
0.1173,0.048876,0.20528,0.01955
0.1173,0.039101,0.1955,0.01955
0.1173,0.048876,0.1955,0.01955
0.097752,0.048876,0.1955,0.029326
0.078201,0.058651,0.1955,0.029326
0.068426,0.058651,0.2737,0.029326
0.048876,0.058651,0.28348,0.029326
0.058651,0.048876,0.30303,0.01955
0.068426,0.048876,0.35191,0.01955
0.068426,0.058651,0.30303,0.029326
0.087977,0.068426,0.2737,0.01955
0.1173,0.058651,0.25415,0.039101
0.14663,0.058651,0.2346,0.029326
0.17595,0.058651,0.21505,0.029326
0.18573,0.058651,0.18573,0.029326
0.17595,0.068426,0.16618,0.029326
0.18573,0.078201,0.14663,0.029326
0.22483,0.078201,0.13685,0.029326
0.25415,0.078201,0.13685,0.01955
0.24438,0.087977,0.12708,0.01955
0.1955,0.087977,0.10753,0.01955
0.16618,0.078201,0.1173,0.01955
0.14663,0.078201,0.1173,0.029326
0.13685,0.087977,0.12708,0.01955
0.12708,0.078201,0.1173,0.029326
0.14663,0.068426,0.097752,0.029326
0.16618,0.078201,0.097752,0.01955
0.18573,0.087977,0.087977,0.029326
0.16618,0.078201,0.087977,0.01955
0.13685,0.087977,0.087977,0.01955
0.14663,0.087977,0.087977,0.01955
0.1955,0.087977,0.087977,0.0097752
0.30303,0.087977,0.078201,0.01955
0.36168,0.10753,0.078201,0.01955
0.30303,0.1173,0.087977,0.029326
0.24438,0.12708,0.087977,0.029326
0.1955,0.10753,0.087977,0.029326
0.1564,0.1173,0.078201,0.029326
0.13685,0.10753,0.078201,0.029326
0.12708,0.12708,0.087977,0.029326
0.10753,0.12708,0.078201,0.029326
0.087977,0.1173,0.078201,0.029326
0.068426,0.12708,0.087977,0.039101
0.058651,0.1173,0.12708,0.048876
0.048876,0.1173,0.10753,0.039101
0.039101,0.097752,0.097752,0.039101
0.029326,0.097752,0.087977,0.048876
0.029326,0.087977,0.087977,0.048876
0.029326,0.078201,0.087977,0.048876
0.01955,0.087977,0.087977,0.039101
0.01955,0.087977,0.097752,0.029326
0.029326,0.097752,0.087977,0.029326
0.01955,0.087977,0.087977,0.01955
0.01955,0.087977,0.10753,0.029326
0.01955,0.087977,0.10753,0.01955
0.01955,0.078201,0.10753,0.029326
0.01955,0.078201,0.1173,0.039101
0.01955,0.078201,0.1173,0.029326
0.01955,0.078201,0.1173,0.029326
0.039101,0.068426,0.10753,0.01955
0.039101,0.068426,0.097752,0.01955
0.039101,0.068426,0.087977,0.01955
0.039101,0.068426,0.078201,0.01955
0.039101,0.058651,0.087977,0.01955
0.058651,0.068426,0.087977,0.01955
0.087977,0.058651,0.10753,0.01955
0.10753,0.058651,0.10753,0.01955
0.10753,0.058651,0.10753,0.01955
0.10753,0.058651,0.10753,0.0097752
0.097752,0.058651,0.097752,0.0097752
0.087977,0.048876,0.087977,0.0097752
0.1173,0.048876,0.087977,0.0097752
0.13685,0.048876,0.10753,0.01955
0.1564,0.048876,0.10753,0.0097752
0.1564,0.048876,0.12708,0.01955
0.1564,0.058651,0.14663,0.0097752
0.16618,0.048876,0.1564,0.0097752
0.16618,0.048876,0.16618,0.0097752
0.1564,0.048876,0.2346,0.01955
0.13685,0.048876,0.25415,0.0097752
0.1564,0.039101,0.24438,0.01955
0.2346,0.048876,0.1955,0.01955
0.37146,0.039101,0.17595,0.029326
0.32258,0.039101,0.17595,0.01955
0.26393,0.039101,0.20528,0.01955
0.22483,0.039101,0.22483,0.01955
0.18573,0.039101,0.20528,0.01955
0.1564,0.039101,0.17595,0.01955
0.13685,0.039101,0.1564,0.029326
0.1173,0.039101,0.1564,0.029326
0.097752,0.039101,0.14663,0.029326
0.087977,0.039101,0.1564,0.01955
0.078201,0.039101,0.14663,0.01955
0.068426,0.039101,0.16618,0.01955
0.068426,0.039101,0.1564,0.01955
0.058651,0.048876,0.17595,0.029326
0.058651,0.048876,0.17595,0.029326
0.058651,0.039101,0.14663,0.029326
0.048876,0.048876,0.1564,0.029326
0.048876,0.039101,0.1564,0.029326
0.048876,0.039101,0.20528,0.039101
0.058651,0.029326,0.22483,0.029326
0.048876,0.039101,0.20528,0.029326
0.048876,0.029326,0.26393,0.029326
0.048876,0.029326,0.47898,0.029326
0.039101,0.029326,0.46921,0.01955
0.048876,0.01955,0.73314,0.01955
0.048876,0.029326,1.0362,0.029326
0.048876,0.029326,0.98729,0.039101
0.039101,0.029326,0.82111,0.039101
0.058651,0.029326,0.67449,0.039101
0.058651,0.029326,0.82111,0.039101
0.058651,0.029326,0.86022,0.039101
0.058651,0.029326,0.71359,0.039101
0.068426,0.029326,0.58651,0.039101
0.068426,0.039101,0.48876,0.048876
0.087977,0.029326,0.45943,0.048876
0.087977,0.039101,0.41056,0.048876
0.068426,0.029326,0.57674,0.048876
0.078201,0.029326,0.62561,0.039101
0.087977,0.029326,0.60606,0.048876
0.097752,0.039101,0.68426,0.058651
0.097752,0.039101,1.0948,0.048876
0.1173,0.039101,1.0948,0.068426
0.13685,0.029326,1.0655,0.087977
0.12708,0.039101,0.99707,0.087977
0.12708,0.039101,0.91887,0.078201
0.13685,0.039101,0.82111,0.068426
0.12708,0.039101,0.77224,0.068426
0.12708,0.039101,0.72336,0.068426
0.12708,0.039101,0.67449,0.068426
0.13685,0.048876,0.58651,0.058651
0.14663,0.048876,0.54741,0.048876
0.17595,0.039101,0.46921,0.048876
0.16618,0.048876,0.45943,0.048876
0.18573,0.048876,0.40078,0.039101
0.20528,0.039101,0.36168,0.039101
0.35191,0.048876,0.34213,0.039101
0.37146,0.048876,0.30303,0.048876
0.30303,0.048876,0.30303,0.048876
0.2737,0.039101,0.33236,0.039101
0.24438,0.048876,0.36168,0.048876
0.21505,0.048876,0.34213,0.039101
0.17595,0.039101,0.31281,0.039101
0.14663,0.039101,0.29326,0.039101
0.13685,0.039101,0.2737,0.039101
0.1173,0.048876,0.2737,0.039101
0.10753,0.039101,0.21505,0.039101
0.087977,0.039101,0.20528,0.039101
0.078201,0.048876,0.1955,0.029326
0.068426,0.048876,0.22483,0.039101
0.058651,0.048876,0.22483,0.039101
0.068426,0.048876,0.21505,0.039101
0.068426,0.048876,0.1955,0.029326
0.058651,0.048876,0.22483,0.029326
0.058651,0.048876,0.1955,0.039101
0.068426,0.048876,0.18573,0.039101
0.058651,0.048876,0.16618,0.029326
0.068426,0.039101,0.1564,0.01955
0.078201,0.039101,0.16618,0.01955
0.078201,0.039101,0.14663,0.029326
0.078201,0.048876,0.13685,0.01955
0.087977,0.039101,0.14663,0.01955
0.097752,0.039101,0.1564,0.01955
0.097752,0.039101,0.17595,0.01955
0.087977,0.039101,0.17595,0.029326
0.087977,0.039101,0.17595,0.039101
0.087977,0.048876,0.16618,0.029326
0.097752,0.048876,0.17595,0.029326
0.10753,0.039101,0.20528,0.039101
0.10753,0.039101,0.22483,0.039101
0.10753,0.048876,0.22483,0.039101
0.10753,0.048876,0.21505,0.029326
0.097752,0.039101,0.20528,0.039101
0.10753,0.039101,0.18573,0.029326
0.12708,0.048876,0.24438,0.029326
0.1173,0.048876,0.32258,0.01955
0.10753,0.048876,0.29326,0.029326
0.13685,0.048876,0.30303,0.01955
0.13685,0.048876,0.30303,0.01955
0.1173,0.048876,0.2737,0.01955
0.10753,0.048876,0.28348,0.01955
0.087977,0.048876,0.30303,0.01955
0.097752,0.048876,0.29326,0.0097752
0.087977,0.039101,0.26393,0.01955
0.078201,0.048876,0.36168,0.029326
0.068426,0.048876,0.43988,0.029326
0.058651,0.048876,0.37146,0.01955
0.058651,0.048876,0.33236,0.01955
0.039101,0.058651,0.29326,0.01955
0.048876,0.058651,0.26393,0.01955
0.048876,0.048876,0.26393,0.01955
0.048876,0.048876,0.24438,0.01955
0.048876,0.048876,0.22483,0.01955
0.068426,0.048876,0.20528,0.01955
0.097752,0.039101,0.18573,0.01955
0.1173,0.039101,0.18573,0.01955
0.14663,0.048876,0.16618,0.0097752
0.18573,0.048876,0.16618,0.01955
0.21505,0.048876,0.16618,0.01955
0.21505,0.048876,0.17595,0.0097752
0.21505,0.058651,0.1564,0.0097752
0.21505,0.058651,0.14663,0.0097752
0.22483,0.058651,0.18573,0.0097752
0.22483,0.058651,0.21505,0.0097752
0.26393,0.058651,0.21505,0.0097752
0.2346,0.068426,0.2346,0.0097752
0.2346,0.058651,0.21505,0.01955
0.22483,0.058651,0.20528,0.01955
0.1955,0.068426,0.18573,0.01955
0.1564,0.068426,0.17595,0.0097752
0.12708,0.058651,0.1955,0.01955
0.097752,0.058651,0.17595,0.01955
0.087977,0.058651,0.1564,0.01955
0.078201,0.058651,0.13685,0.01955
0.068426,0.048876,0.14663,0.01955
0.058651,0.048876,0.13685,0.01955
0.048876,0.048876,0.10753,0.01955
0.039101,0.048876,0.097752,0.01955
0.029326,0.058651,0.097752,0.01955
0.029326,0.039101,0.12708,0.01955
0.029326,0.048876,0.12708,0.01955
0.029326,0.048876,0.13685,0.01955
0.029326,0.058651,0.13685,0.01955
0.039101,0.058651,0.12708,0.01955
0.039101,0.048876,0.1173,0.029326
0.029326,0.048876,0.10753,0.01955
0.01955,0.058651,0.1173,0.029326
0.01955,0.048876,0.13685,0.01955
0.029326,0.048876,0.14663,0.01955
0.029326,0.048876,0.14663,0.0097752
0.029326,0.039101,0.16618,0.0097752
0.039101,0.039101,0.14663,0.0097752
0.029326,0.048876,0.13685,0.01955
0.01955,0.039101,0.12708,0.01955
0.01955,0.039101,0.13685,0.01955
0.01955,0.039101,0.13685,0.0097752
0.01955,0.048876,0.17595,0.0097752
0.01955,0.048876,0.17595,0.0097752
0.029326,0.048876,0.1564,0.0097752
0.048876,0.048876,0.14663,0.0097752
0.058651,0.048876,0.13685,0.01955
0.058651,0.048876,0.16618,0.01955
0.048876,0.058651,0.1564,0.029326
0.048876,0.048876,0.13685,0.01955
0.048876,0.039101,0.1564,0.029326
0.048876,0.039101,0.18573,0.029326
0.048876,0.039101,0.16618,0.01955
0.039101,0.039101,0.14663,0.01955
0.039101,0.039101,0.13685,0.01955
0.029326,0.029326,0.1564,0.01955
0.039101,0.029326,0.1564,0.01955
0.048876,0.039101,0.1564,0.029326
0.058651,0.039101,0.16618,0.029326
0.068426,0.039101,0.14663,0.029326
0.087977,0.029326,0.13685,0.01955
0.087977,0.039101,0.1173,0.01955
0.097752,0.039101,0.14663,0.01955
0.087977,0.039101,0.22483,0.01955
0.087977,0.029326,0.20528,0.01955
0.078201,0.039101,0.20528,0.01955
0.078201,0.039101,0.17595,0.01955
0.068426,0.039101,0.1564,0.01955
0.058651,0.039101,0.18573,0.01955
0.068426,0.039101,0.18573,0.029326
0.058651,0.029326,0.16618,0.029326
0.058651,0.029326,0.16618,0.029326
0.048876,0.039101,0.18573,0.029326
0.039101,0.029326,0.20528,0.01955
0.048876,0.029326,0.38123,0.029326
0.048876,0.029326,0.43988,0.029326
0.058651,0.029326,0.66471,0.029326
0.048876,0.029326,0.92864,0.029326
0,0.029326,0.048876,0.1173
0.21505,1.1241,0.39101,0.24438
0.17595,0.88954,0.37146,0.31281
0.1564,0.70381,0.35191,0
0.12708,0.55718,0.34213,0
0.10753,0.44966,0.30303,0.0097752
0.097752,0.35191,0.24438,0
0.078201,0.28348,0.20528,0
0.068426,0.22483,0.18573,0.18573
0.048876,0.18573,0.16618,0
0.039101,0.1564,0.1564,0
0.029326,0.12708,0.14663,0.21505
0.039101,0.10753,0.1564,0.13685
0.048876,0.087977,0.24438,0.18573
0.087977,0.068426,0.33236,0.2737
0.18573,0.068426,0.43988,0.31281
0.18573,0.048876,0.53763,0.36168
0.22483,0.048876,0.50831,0.39101
0.25415,0.048876,0.57674,0.43988
0.2346,0.039101,0.53763,0.44966
0.1955,0.048876,0.51808,0.43988
0.16618,0.039101,0.51808,0.41056
0.14663,0.039101,0.43011,0.38123
0.14663,0.029326,0.35191,0.37146
0.12708,0.029326,0.31281,0.33236
0.10753,0.029326,0.30303,0.2346
0.078201,0.039101,0.30303,0.28348
0.068426,0.048876,0.28348,0.24438
0.058651,0.048876,0.24438,0.31281
0.039101,0.048876,0.26393,0.30303
0.029326,0.048876,0.26393,0.42033
0.01955,0.048876,0.2346,0.38123
0.01955,0.048876,0.21505,0.34213
0.01955,0.039101,0.20528,0.32258
0.01955,0.048876,0.18573,0.29326
0.048876,0.048876,0.16618,0.2737
0.068426,0.048876,0.14663,0.25415
0.068426,0.048876,0.13685,0.24438
0.068426,0.048876,0.1564,0.21505
0.058651,0.048876,0.17595,0.22483
0.078201,0.048876,0.14663,0.17595
0.078201,0.058651,0.14663,0.20528
0.078201,0.068426,0.1564,0.14663
0.068426,0.068426,0.13685,0.16618
0.078201,0.068426,0.1173,0.12708
0.087977,0.078201,0.097752,0.1564
0.078201,0.068426,0.10753,0.1564
0.087977,0.068426,0.14663,0.1564
0.10753,0.068426,0.13685,0.13685
0.14663,0.068426,0.18573,0.12708
0.14663,0.048876,0.16618,0.1173
0.1173,0.048876,0.13685,0.1173
0.097752,0.048876,0.13685,0.1173
0.078201,0.058651,0.10753,0.10753
0.068426,0.058651,0.097752,0.10753
0.058651,0.058651,0.097752,0.1173
0.058651,0.058651,0.087977,0.1173
0.048876,0.058651,0.087977,0.1173
0.048876,0.048876,0.078201,0.12708
0.048876,0.058651,0.068426,0.10753
0.058651,0.048876,0.087977,0.097752
0.078201,0.048876,0.10753,0.078201
0.10753,0.048876,0.087977,0.068426
0.10753,0.048876,0.10753,0.048876
0.1173,0.048876,0.12708,0.048876
0.12708,0.039101,0.1173,0.039101
0.1173,0.039101,0.17595,0.029326
0.10753,0.039101,0.20528,0.029326
0.10753,0.039101,0.20528,0.039101
0.10753,0.039101,0.18573,0.029326
0.097752,0.039101,0.17595,0.029326
0.10753,0.039101,0.1955,0.029326
0.1173,0.039101,0.24438,0.029326
0.14663,0.039101,0.32258,0.029326
0.17595,0.029326,0.35191,0.039101
0.17595,0.029326,0.30303,0.029326
0.1564,0.029326,0.2737,0.039101
0.1564,0.029326,0.28348,0.039101
0.14663,0.029326,0.2737,0.039101
0.13685,0.01955,0.25415,0.039101
0.12708,0.029326,0.25415,0.039101
0.13685,0.029326,0.24438,0.029326
0.18573,0.029326,0.24438,0.029326
0.24438,0.039101,0.21505,0.029326
0.24438,0.029326,0.1955,0.029326
0.30303,0.029326,0.2737,0.01955
0.31281,0.029326,0.30303,0.01955
0.28348,0.029326,0.48876,0.01955
0.24438,0.029326,0.55718,0.01955
0.24438,0.029326,0.55718,0.01955
0.20528,0.029326,0.53763,0.01955
0.16618,0.01955,0.48876,0.01955
0.14663,0.01955,0.40078,0.01955
0.12708,0.01955,0.32258,0.0097752
0.10753,0.01955,0.2737,0.0097752
0.12708,0.029326,0.22483,0.0097752
0.14663,0.01955,0.17595,0.0097752
0.17595,0.01955,0.14663,0
0.21505,0.01955,0.12708,0.0097752
0.25415,0.01955,0.097752,0
0.32258,0.01955,0.087977,0
0.45943,0.01955,0.068426,0.0097752
0.43988,0.01955,0.058651,0.01955
0.40078,0.01955,0.058651,0.0097752
0.33236,0.01955,0.058651,0
0.32258,0.01955,0.068426,0.0097752
0.32258,0.01955,0.068426,0.0097752
0.2737,0.01955,0.087977,0.0097752
0.26393,0.01955,0.13685,0
0.39101,0.0097752,0.14663,0.0097752
0.42033,0.01955,0.12708,0.0097752
0.55718,0.01955,0.10753,0
0.46921,0.01955,0.097752,0
0.43011,0.01955,0.10753,0
0.35191,0.01955,0.12708,0
0.32258,0.01955,0.1173,0
0.29326,0.01955,0.10753,0
0.25415,0.01955,0.078201,0
0.2346,0.029326,0.068426,0
0.20528,0.01955,0.068426,0
0.17595,0.01955,0.087977,0
0.1564,0.01955,0.087977,0.0097752
0.13685,0.01955,0.078201,0.0097752
0.1173,0.029326,0.068426,0.0097752
0.097752,0.01955,0.068426,0.0097752
0.078201,0.01955,0.068426,0
0.068426,0.01955,0.068426,0
0.048876,0.01955,0.068426,0
0.048876,0.01955,0.058651,0
0.039101,0.01955,0.058651,0
0.039101,0.01955,0.058651,0
0.039101,0.01955,0.078201,0
0.029326,0.01955,0.1173,0
0.01955,0.01955,0.13685,0
0.029326,0.01955,0.13685,0
0.029326,0.01955,0.13685,0
0.029326,0.01955,0.1173,0
0.029326,0.01955,0.13685,0
0.029326,0.01955,0.14663,0
0.029326,0.01955,0.12708,0
0.01955,0.01955,0.14663,0
0.039101,0.029326,0.2737,0
0.058651,0.01955,0.43011,0
0.068426,0.01955,0.43988,0
0.10753,0.01955,0.51808,0
0.10753,0.01955,0.50831,0
0.1173,0.01955,0.55718,0
0.10753,0.01955,0.48876,0
0.087977,0.01955,0.41056,0
0.078201,0.029326,0.35191,0
0.068426,0.029326,0.30303,0
0.058651,0.029326,0.26393,0
0.058651,0.029326,0.22483,0
0.048876,0.029326,0.20528,0
0.058651,0.039101,0.16618,0
0.068426,0.039101,0.1564,0
0.10753,0.039101,0.13685,0
0.1173,0.039101,0.13685,0
0.12708,0.039101,0.13685,0
0.12708,0.029326,0.1173,0
0.12708,0.029326,0.1173,0
0.1173,0.039101,0.10753,0
0.10753,0.039101,0.097752,0
0.097752,0.039101,0.087977,0.0097752
0.078201,0.029326,0.12708,0
0.078201,0.039101,0.1955,0.0097752
0.078201,0.029326,0.22483,0.0097752
0.068426,0.029326,0.18573,0.0097752
0.058651,0.029326,0.1564,0.01955
0.087977,0.029326,0.13685,0.0097752
0.13685,0.039101,0.1173,0.01955
0.12708,0.029326,0.10753,0.01955
0.10753,0.029326,0.097752,0.01955
0.097752,0.029326,0.097752,0.01955
0.078201,0.029326,0.078201,0.01955
0.087977,0.029326,0.068426,0.01955
0.078201,0.029326,0.068426,0.029326
0.058651,0.029326,0.068426,0.029326
0.058651,0.029326,0.068426,0.029326
0.048876,0.01955,0.058651,0.029326
0.048876,0.01955,0.058651,0.029326
0.058651,0.01955,0.058651,0.039101
0.058651,0.01955,0.078201,0.048876
0.058651,0.029326,0.087977,0.058651
0.048876,0.029326,0.087977,0.058651
0.039101,0.029326,0.087977,0.048876
0.029326,0.01955,0.078201,0.048876
0.01955,0.01955,0.078201,0.058651
0.01955,0.01955,0.10753,0.058651
0.01955,0.01955,0.14663,0.058651
0.01955,0.01955,0.13685,0.048876
0.01955,0.01955,0.13685,0.068426
0.01955,0.01955,0.1173,0.097752
0.01955,0.01955,0.16618,0.12708
0.01955,0.01955,0.22483,0.1564
0.01955,0.029326,0.21505,0.16618
0.0097752,0.01955,0.20528,0.16618
0.01955,0.01955,0.17595,0.14663
0.01955,0.01955,0.14663,0.12708
0.01955,0.029326,0.12708,0.10753
0.01955,0.029326,0.1173,0.097752
0.039101,0.029326,0.10753,0.087977
0.068426,0.029326,0.087977,0.087977
0.068426,0.029326,0.078201,0.078201
0.087977,0.01955,0.068426,0.068426
0.097752,0.01955,0.068426,0.058651
0.097752,0.01955,0.058651,0.048876
0.097752,0.01955,0.058651,0.058651
0.087977,0.01955,0.058651,0.048876
0.087977,0.01955,0.058651,0.039101
0.078201,0.01955,0.058651,0.039101
0.068426,0.01955,0.048876,0.039101
0.078201,0.01955,0.048876,0.048876
0.087977,0.01955,0.048876,0.048876
0.068426,0.029326,0.058651,0.039101
0.068426,0.029326,0.068426,0.039101
0.068426,0.029326,0.068426,0.029326
0.068426,0.029326,0.058651,0.01955
0.058651,0.01955,0.068426,0.039101
0.048876,0.029326,0.068426,0.048876
0.039101,0.029326,0.058651,0.048876
0.039101,0.029326,0.058651,0.039101
0.039101,0.029326,0.048876,0.058651
0.029326,0.029326,0.058651,0.048876
0.039101,0.029326,0.068426,0.048876
0.087977,0.029326,0.068426,0.039101
0.10753,0.029326,0.068426,0.039101
0.097752,0.029326,0.068426,0.039101
0.078201,0.039101,0.068426,0.039101
0.068426,0.039101,0.068426,0.039101
0.048876,0.048876,0.078201,0.039101
0.058651,0.058651,0.068426,0.029326
0.048876,0.058651,0.068426,0.029326
0.039101,0.058651,0.068426,0.01955
0.048876,0.058651,0.087977,0.01955
0.039101,0.058651,0.10753,0.01955
0.029326,0.058651,0.1173,0.01955
0.029326,0.058651,0.097752,0.0097752
0.029326,0.058651,0.097752,0.01955
0.01955,0.048876,0.087977,0.01955
0.0097752,0.048876,0.12708,0.01955
0.0097752,0.048876,0.13685,0.029326
0.0097752,0.048876,0.1173,0.029326
0.01955,0.048876,0.13685,0.01955
0.029326,0.048876,0.12708,0.029326
0.029326,0.048876,0.10753,0.029326
0.029326,0.058651,0.097752,0.029326
0.029326,0.048876,0.097752,0.029326
0.01955,0.048876,0.087977,0.01955
0.01955,0.039101,0.078201,0.01955
0.01955,0.048876,0.087977,0.01955
0.029326,0.048876,0.078201,0.01955
0.029326,0.039101,0.097752,0.01955
0.029326,0.039101,0.097752,0.01955
0.029326,0.039101,0.097752,0.01955
0.029326,0.048876,0.078201,0.01955
0.048876,0.039101,0.1564,0.0097752
0.068426,0.039101,0.17595,0.0097752
0.068426,0.039101,0.18573,0.0097752
0.058651,0.039101,0.25415,0.0097752
0.068426,0.029326,0.26393,0
0.058651,0.029326,0.38123,0.0097752
0.058651,0.039101,0.35191,0
0.058651,0.039101,0.30303,0
0.058651,0.039101,0.31281,0
0.068426,0.029326,0.30303,0
0.087977,0.029326,0.24438,0
0.078201,0.029326,0.20528,0.0097752
0.087977,0.039101,0.17595,0
0.078201,0.029326,0.17595,0.0097752
0.078201,0.029326,0.20528,0.0097752
0.078201,0.029326,0.24438,0.0097752
0.078201,0.029326,0.2737,0.0097752
0.068426,0.039101,0.33236,0
0.058651,0.039101,0.43011,0
0.048876,0.029326,0.64516,0.0097752
0.048876,0.039101,1.0166,0.0097752
0.058651,0.039101,1.0362,0
0.068426,0.039101,0.94819,0
0.058651,0.039101,0.95797,0
0.068426,0.048876,0.86022,0.0097752
0.068426,0.039101,0.69404,0
0.087977,0.039101,0.61584,0.0097752
0.087977,0.029326,0.56696,0
0.12708,0.029326,0.47898,0.0097752
0.14663,0.029326,0.39101,0
0.14663,0.01955,0.33236,0
0.1564,0.01955,0.28348,0
0.17595,0.01955,0.2346,0
0.31281,0.0097752,0.1955,0
0.46921,0.0097752,0.16618,0
0.44966,0.0097752,0.14663,0
0.42033,0.0097752,0.1173,0
0.40078,0,0.097752,0
0.35191,0,0.078201,0
0.29326,0,0.068426,0
0.30303,0,0.068426,0
0.28348,0,0.068426,0
0.25415,0,0.078201,0
0.2346,0.0097752,0.087977,0
0.24438,0.0097752,0.078201,0
0.28348,0.0097752,0.068426,0
0.32258,0.0097752,0.097752,0
0.35191,0.0097752,0.1173,0
0.40078,0.0097752,0.10753,0
0.46921,0.0097752,0.13685,0
0.51808,0.0097752,0.17595,0
0.58651,0.0097752,0.17595,0
0.62561,0,0.17595,0
0.52786,0,0.16618,0
0.48876,0,0.14663,0
0.86999,0,0.1173,0
0.76246,0,0.097752,0
0.61584,0,0.078201,0
0.48876,0.0097752,0.068426,0
0.40078,0.0097752,0.068426,0.0097752
0.35191,0.0097752,0.097752,0.0097752
0.32258,0.0097752,0.097752,0.0097752
0.28348,0.01955,0.097752,0.0097752
0.24438,0.01955,0.10753,0.0097752
0.1955,0.01955,0.1564,0.048876
0.1564,0.01955,0.1955,0.039101
0.14663,0.01955,0.1955,0.029326
0.13685,0.01955,0.17595,0.029326
0.14663,0.01955,0.20528,0.029326
0.1564,0.01955,0.2346,0.029326
0.16618,0.029326,0.25415,0.029326
0.1564,0.029326,0.26393,0.01955
0.12708,0.039101,0.2346,0.029326
0.16618,0.029326,0.21505,0.01955
0.20528,0.029326,0.18573,0.01955
0.20528,0.029326,0.17595,0.029326
0.17595,0.029326,0.1564,0.01955
0.14663,0.029326,0.14663,0.029326
0.12708,0.029326,0.12708,0.029326
0.10753,0.029326,0.1173,0.039101
0.097752,0.029326,0.16618,0.039101
0.10753,0.029326,0.24438,0
0.1173,0.029326,0.35191,0.068426
0.097752,0.029326,0.31281,0.068426
0.087977,0.029326,0.31281,0.068426
0.087977,0.029326,0.35191,0.068426
0.078201,0.029326,0.36168,0.058651
0.078201,0.029326,0.31281,0.048876
0.097752,0.01955,0.28348,0.048876
0.10753,0.01955,0.24438,0.048876
0.097752,0.01955,0.21505,0.048876
0.097752,0.01955,0.18573,0.039101
0.14663,0.029326,0.16618,0.048876
0.18573,0.029326,0.14663,0.058651
0.1955,0.029326,0.1173,0.068426
0.17595,0.01955,0.097752,0.10753
0.1955,0.01955,0.087977,0.16618
0.1955,0.01955,0.078201,0.1564
0.1564,0.01955,0.068426,0.13685
0.12708,0.029326,0.078201,0.12708
0.1173,0.029326,0.087977,0.12708
0.087977,0.029326,0.097752,0.10753
0.10753,0.029326,0.097752,0.10753
0.13685,0.01955,0.078201,0.087977
0.17595,0.01955,0.068426,0.078201
0.22483,0.01955,0.058651,0.078201
0.29326,0.01955,0.058651,0.058651
0.35191,0.01955,0.058651,0.048876
0.40078,0.01955,0.058651,0.048876
0.40078,0.01955,0.058651,0.048876
0.38123,0.01955,0.048876,0.048876
0.38123,0.01955,0.039101,0.039101
0.48876,0.01955,0.039101,0.029326
0.49853,0.01955,0.029326,0.029326
0.43011,0.01955,0.029326,0.01955
0.41056,0.01955,0.01955,0.029326
0.38123,0.01955,0.01955,0.029326
0.32258,0.01955,0.01955,0.029326
0.29326,0.01955,0.01955,0.029326
0.26393,0.029326,0.01955,0.039101
0.22483,0.01955,0.01955,0.068426
0.1955,0.01955,0.01955,0.087977
0.16618,0.01955,0.01955,0.068426
0.1564,0.01955,0.01955,0.068426
0.13685,0.029326,0.029326,0.048876
0.1173,0.029326,0.039101,0.039101
0.10753,0.029326,0.068426,0.039101
0.097752,0.029326,0.078201,0.029326
0.087977,0.01955,0.068426,0.029326
0.087977,0.029326,0.058651,0.029326
0.078201,0.01955,0.058651,0.029326
0.078201,0.01955,0.078201,0.01955
0.078201,0.01955,0.12708,0.01955
0.068426,0.029326,0.13685,0.01955
0.058651,0.029326,0.13685,0.029326
0.048876,0.029326,0.1173,0.029326
0.048876,0.029326,0.14663,0.0097752
0.039101,0.029326,0.18573,0.01955
0.029326,0.029326,0.18573,0.01955
0.029326,0.01955,0.17595,0.01955
0.029326,0.01955,0.14663,0.01955
0.039101,0.01955,0.12708,0.01955
0.039101,0.01955,0.13685,0.01955
0.048876,0.029326,0.16618,0.01955
0.039101,0.029326,0.17595,0.029326
0.039101,0.029326,0.17595,0.01955
0.048876,0.029326,0.1564,0.01955
0.048876,0.029326,0.13685,0.01955
0.048876,0.029326,0.12708,0.01955
0.048876,0.01955,0.12708,0
0.058651,0.029326,0.1173,0.029326
0.058651,0.01955,0.1173,0.029326
0.087977,0.01955,0.10753,0.029326
0.087977,0.029326,0.097752,0.01955
0.10753,0.01955,0.097752,0.0097752
0.1173,0.01955,0.087977,0.0097752
0.1173,0.029326,0.10753,0.0097752
0.097752,0.029326,0.097752,0.0097752
0.097752,0.029326,0.087977,0.0097752
0.097752,0.029326,0.087977,0.0097752
0.097752,0.01955,0.078201,0.0097752
0.10753,0.01955,0.078201,0
0.12708,0.029326,0.078201,0.0097752
0.16618,0.029326,0.097752,0
0.21505,0.039101,0.087977,0
0.22483,0.029326,0.078201,0
0.22483,0.029326,0.068426,0
0.22483,0.029326,0.068426,0.0097752
0.2737,0.039101,0.068426,0
0.34213,0.029326,0.048876,0
0.43011,0.029326,0.078201,0
0.42033,0.039101,0.087977,0
0.37146,0.039101,0.097752,0
0.37146,0.039101,0.10753,0
0.36168,0.039101,0.087977,0
0.33236,0.039101,0.078201,0
0.2737,0.039101,0.078201,0
0.22483,0.039101,0.068426,0
0.18573,0.039101,0.087977,0
0.1564,0.039101,0.097752,0
0.13685,0.039101,0.1564,0
0.1173,0.039101,0.24438,0
0.10753,0.039101,0.26393,0
0.087977,0.029326,0.28348,0
0.078201,0.039101,0.2346,0.0097752
0.087977,0.039101,0.2737,0.0097752
0.097752,0.039101,0.32258,0.0097752
0.1173,0.048876,0.34213,0.0097752
0.097752,0.068426,0.28348,0.0097752
0.087977,0.058651,0.26393,0
0.078201,0.058651,0.30303,0
0.058651,0.058651,0.33236,0
0.048876,0.058651,0.47898,0
0.048876,0.048876,0.47898,0
0.048876,0.048876,0.50831,0
0.048876,0.048876,0.48876,0
0.039101,0.058651,0.46921,0
0.039101,0.058651,0.48876,0
0.039101,0.048876,0.54741,0
0.039101,0.048876,0.58651,0
0.039101,0.048876,0.53763,0
0.039101,0.048876,0.62561,0
0.048876,0.048876,0.66471,0
0.078201,0.048876,0.54741,0
0.087977,0.039101,0.50831,0
0.1173,0.039101,0.43988,0
0.14663,0.039101,0.35191,0
0.16618,0.039101,0.30303,0
0.18573,0.039101,0.2737,0
0.14663,0.029326,0.25415,0
0.12708,0.039101,0.24438,0
0.10753,0.048876,0.24438,0
0.12708,0.039101,0.25415,0
0.1173,0.039101,0.22483,0
0.12708,0.048876,0.20528,0
0.097752,0.048876,0.20528,0
0.087977,0.048876,0.18573,0
0.078201,0.048876,0.1564,0
0.068426,0.048876,0.13685,0
0.058651,0.048876,0.1173,0
0.078201,0.048876,0.10753,0
0.1173,0.048876,0.12708,0
0.12708,0.048876,0.14663,0.0097752
0.10753,0.048876,0.14663,0
0.10753,0.058651,0.14663,0
0.087977,0.048876,0.14663,0
0.097752,0.048876,0.12708,0
0.12708,0.039101,0.1173,0
0.18573,0.039101,0.097752,0
0.29326,0.039101,0.087977,0
0.37146,0.029326,0.087977,0
0.42033,0.039101,0.097752,0
0.38123,0.029326,0.078201,0
0.33236,0.01955,0.087977,0
0.30303,0.01955,0.087977,0
0.29326,0.01955,0.097752,0.0097752
0.30303,0.01955,0.087977,0.0097752
0.32258,0.01955,0.1173,0
0.35191,0.01955,0.12708,0
0.38123,0.01955,0.097752,0
0.43011,0.01955,0.29326,0.0097752
0.48876,0.01955,0.2737,0.0097752
0.53763,0.029326,0.2737,0.0097752
0.58651,0.029326,0.2737,0.0097752
0.62561,0.029326,0.29326,0.0097752
0.61584,0.029326,0.25415,0.0097752
0.67449,0.01955,0.21505,0.0097752
1.0264,0.01955,0.16618,0.0097752
0.89932,0.01955,0.14663,0.0097752
0.75269,0.01955,0.14663,0.0097752
0.64516,0.01955,0.1564,0.0097752
0.51808,0.01955,0.17595,0.01955
0.44966,0.01955,0.20528,0
0.43988,0.01955,0.24438,0.01955
0.43011,0.01955,0.35191,0.01955
0.36168,0.01955,0.45943,0.01955
0.37146,0.0097752,0.44966,0.01955
0.41056,0.0097752,0.43011,0.01955
0.47898,0.01955,0.40078,0.029326
0.41056,0.0097752,0.67449,0.029326
0.36168,0.01955,0.81134,0.029326
0.32258,0.0097752,0.77224,0.039101
0.2737,0.0097752,0.67449,0.039101
0.2346,0.0097752,0.54741,0.039101
0.1955,0.01955,0.43988,0.039101
0.16618,0.029326,0.37146,0.029326
0.1564,0.01955,0.29326,0.039101
0.14663,0.01955,0.26393,0.039101
0.12708,0.01955,0.24438,0.048876
0.12708,0.01955,0.22483,0.048876
0.12708,0.01955,0.20528,0.058651
0.13685,0.01955,0.22483,0.048876
0.13685,0.01955,0.2346,0.048876
0.10753,0.01955,0.24438,0.048876
0.087977,0.0097752,0.26393,0.048876
0.087977,0.01955,0.25415,0.058651
0.097752,0.0097752,0.21505,0.058651
0.087977,0.0097752,0.21505,0.068426
0.087977,0.01955,0.21505,0.13685
0.078201,0.01955,0.1955,0.14663
0.078201,0.01955,0.1955,0.12708
0.078201,0.01955,0.18573,0.10753
0.078201,0.01955,0.16618,0.12708
0.078201,0.01955,0.13685,0.10753
0.068426,0.01955,0.10753,0.10753
0.078201,0.0097752,0.087977,0.087977
0.10753,0.01955,0.068426,0.078201
0.12708,0.01955,0.068426,0.078201
0.1173,0.01955,0.058651,0.058651
0.12708,0.01955,0.058651,0.048876
0.12708,0.0097752,0.048876,0.058651
0.1173,0.0097752,0.048876,0.048876
0.1173,0.0097752,0.068426,0.048876
0.12708,0.01955,0.087977,0.039101
0.14663,0.01955,0.097752,0.039101
0.1564,0.0097752,0.1173,0.029326
0.1564,0.0097752,0.10753,0.029326
0.1955,0.01955,0.10753,0.029326
0.21505,0.0097752,0.087977,0.029326
0.22483,0.01955,0.087977,0.01955
0.2346,0.0097752,0.097752,0.01955
0.25415,0.01955,0.1173,0.01955
0.26393,0.01955,0.097752,0.01955
0.26393,0.01955,0.078201,0.058651
0.26393,0.01955,0.068426,0.058651
0.24438,0.01955,0.058651,0.048876
0.2346,0.01955,0.087977,0.048876
0.2346,0.01955,0.10753,0.039101
0.24438,0.01955,0.1564,0.029326
0.20528,0.01955,0.18573,0.029326
0.18573,0.0097752,0.20528,0.029326
0.16618,0.0097752,0.17595,0.029326
0.1564,0.0097752,0.1564,0.01955
0.13685,0.0097752,0.18573,0.01955
0.10753,0.0097752,0.20528,0.0097752
0.097752,0.0097752,0.18573,0.0097752
0.087977,0.0097752,0.1564,0.0097752
0.087977,0.01955,0.14663,0.0097752
0.078201,0.0097752,0.14663,0.0097752
0.068426,0.01955,0.16618,0.0097752
0.058651,0.01955,0.21505,0.0097752
0.048876,0.01955,0.24438,0.01955
0.039101,0.01955,0.22483,0.029326
0.039101,0.029326,0.21505,0.039101
0.048876,0.01955,0.18573,0.039101
0.048876,0.01955,0.1564,0.029326
0.048876,0.01955,0.14663,0.039101
0.058651,0.0097752,0.12708,0.029326
0.058651,0.01955,0.10753,0.029326
0.058651,0.0097752,0.10753,0.01955
0.048876,0.01955,0.097752,0.01955
0.039101,0.01955,0.087977,0.0097752
0.039101,0.01955,0.087977,0.0097752
0.029326,0.01955,0.087977,0.01955
0.029326,0.01955,0.087977,0.01955
0.01955,0.01955,0.097752,0.0097752
0.029326,0.0097752,0.16618,0.0097752
0.01955,0.0097752,0.1955,0.0097752
0.01955,0.01955,0.21505,0.0097752
0.01955,0.0097752,0.21505,0
0.0097752,0.01955,0.24438,0.0097752
0.039101,0.0097752,0.2737,0
0.039101,0.01955,0.28348,0
0.039101,0.01955,0.24438,0
0.029326,0.01955,0.24438,0
0.029326,0.01955,0.22483,0
0.029326,0.01955,0.22483,0
0.01955,0.01955,0.1955,0.0097752
0.01955,0.01955,0.16618,0
0.01955,0.01955,0.14663,0
0.029326,0.01955,0.13685,0
0.029326,0.01955,0.1173,0.0097752
0.039101,0.01955,0.12708,0.0097752
0.039101,0.01955,0.10753,0
0.029326,0.01955,0.087977,0
0.039101,0.01955,0.078201,0
0.078201,0.0097752,0.078201,0
0.097752,0.01955,0.097752,0
0.078201,0.0097752,0.12708,0
0.068426,0.0097752,0.16618,0
0.097752,0.0097752,0.21505,0
0.097752,0.01955,0.18573,0.0097752
0.078201,0.01955,0.1564,0
0.068426,0.0097752,0.14663,0
0.058651,0.01955,0.17595,0
0.068426,0.01955,0.2737,0.0097752
0.058651,0.01955,0.32258,0
0.058651,0.01955,0.29326,0
0.058651,0.01955,0.24438,0
0.039101,0.01955,0.22483,0
0.039101,0.01955,0.2346,0
0.039101,0.01955,0.21505,0
0.039101,0.01955,0.24438,0.0097752
0.029326,0.01955,0.2346,0.0097752
0.01955,0.01955,0.24438,0
0.01955,0.01955,0.32258,0.0097752
0.01955,0.01955,0.40078,0
0.029326,0.01955,0.52786,0
0.039101,0.01955,0.69404,0
0.048876,0.01955,0.67449,0
0.048876,0.01955,0.61584,0
0.039101,0.01955,0.54741,0
0.029326,0.029326,0.46921,0
0.039101,0.01955,0.37146,0
0.029326,0.01955,0.31281,0
0.029326,0.01955,0.26393,0
0.029326,0.01955,0.25415,0
0.029326,0.01955,0.22483,0
0.039101,0.01955,0.22483,0
0.039101,0.01955,0.22483,0
0.039101,0.01955,0.20528,0
0.058651,0.029326,0.17595,0
0.068426,0.029326,0.14663,0
0.068426,0.01955,0.12708,0
0.058651,0.01955,0.1173,0
0.058651,0.01955,0.10753,0
0.048876,0.01955,0.12708,0
0.058651,0.039101,0.12708,0
0.068426,0.039101,0.10753,0
0.078201,0.029326,0.10753,0
0.068426,0.029326,0.097752,0
0.068426,0.039101,0.10753,0
0.058651,0.058651,0.10753,0
0.058651,0.068426,0.097752,0
0.068426,0.068426,0.087977,0
0.078201,0.058651,0.068426,0
0.078201,0.068426,0.058651,0
0.068426,0.058651,0.058651,0
0.068426,0.058651,0.058651,0
0.058651,0.058651,0.048876,0
0.058651,0.058651,0.048876,0
0.058651,0.058651,0.058651,0
0.048876,0.048876,0.058651,0.0097752
0.048876,0.048876,0.058651,0
0.048876,0.048876,0.058651,0
0.068426,0.048876,0.048876,0
0.087977,0.048876,0.048876,0
0.12708,0.048876,0.039101,0.0097752
0.14663,0.039101,0.039101,0.0097752
0.17595,0.039101,0.048876,0.0097752
0.22483,0.039101,0.068426,0.0097752
0.28348,0.039101,0.068426,0.0097752
0.2737,0.029326,0.097752,0.01955
0.24438,0.039101,0.10753,0.01955
0.25415,0.039101,0.097752,0.01955
0.25415,0.039101,0.087977,0.01955
0.2346,0.039101,0.087977,0.029326
0.2346,0.039101,0.097752,0.029326
0.22483,0.029326,0.1173,0.029326
0.28348,0.029326,0.1173,0.029326
0.35191,0.039101,0.1173,0.01955
0.36168,0.039101,0.14663,0.01955
0.40078,0.039101,0.29326,0.01955
0.48876,0.039101,0.33236,0.01955
0.62561,0.039101,0.40078,0.029326
0.78201,0.039101,0.40078,0.029326
0.86022,0.039101,0.45943,0.029326
0.91887,0.039101,0.44966,0.039101
0.80156,0.039101,0.38123,0.039101
0.80156,0.048876,0.33236,0.039101
1.3392,0.048876,0.29326,0.039101
1.4076,0.048876,0.25415,0.039101
1.2512,0.048876,0.22483,0.048876
1.1535,0.039101,0.1955,0.048876
1.0557,0.039101,0.17595,0.058651
0.86022,0.039101,0.16618,0.058651
0.73314,0.039101,0.14663,0.058651
0.61584,0.039101,0.12708,0.078201
0.50831,0.029326,0.10753,0.1564
0.43011,0.029326,0.087977,0.30303
0.38123,0.029326,0.078201,0.26393
0.33236,0.029326,0.087977,0.22483
0.2737,0.01955,0.087977,0.18573
0.2346,0.01955,0.078201,0.16618
0.21505,0.01955,0.068426,0.14663
0.20528,0.01955,0.068426,0.12708
0.18573,0.01955,0.068426,0.12708
0.17595,0.01955,0.068426,0.1173
0.14663,0.01955,0.078201,0.097752
0.12708,0.01955,0.10753,0.078201
0.10753,0.01955,0.12708,0.068426
0.097752,0.029326,0.13685,0.058651
0.087977,0.029326,0.13685,0.048876
0.078201,0.029326,0.10753,0.048876
0.068426,0.01955,0.10753,0.039101
0.068426,0.01955,0.14663,0.039101
0.068426,0.01955,0.1564,0.039101
0.058651,0.01955,0.13685,0.039101
0.039101,0.01955,0.1564,0.048876
0.039101,0.01955,0.1955,0.039101
0.029326,0.01955,0.20528,0.029326
0.039101,0.01955,0.21505,0.039101
0.058651,0.01955,0.21505,0.039101
0.058651,0.01955,0.22483,0.039101
0.048876,0.01955,0.24438,0.029326
0.039101,0.01955,0.2346,0.039101
0.048876,0.01955,0.20528,0.039101
0.068426,0.029326,0.17595,0.048876
0.078201,0.01955,0.17595,0.068426
0.097752,0.01955,0.14663,0.078201
0.1173,0.01955,0.13685,0.068426
0.12708,0.01955,0.12708,0.058651
0.13685,0.029326,0.1173,0.048876
0.13685,0.01955,0.1173,0.048876
0.14663,0.01955,0.13685,0.048876
0.14663,0.01955,0.1564,0.048876
0.13685,0.0097752,0.17595,0.039101
0.12708,0.0097752,0.14663,0.039101
0.1564,0.0097752,0.13685,0.029326
0.20528,0.01955,0.1173,0.029326
0.22483,0.01955,0.12708,0.01955
0.22483,0.01955,0.1173,0.029326
0.21505,0.0097752,0.18573,0.029326
0.22483,0.01955,0.34213,0.029326
0.21505,0.01955,0.33236,0.01955
0.2346,0.01955,0.31281,0.01955
0.22483,0.01955,0.29326,0.01955
0.1955,0.01955,0.2737,0.0097752
0.16618,0.01955,0.2346,0.01955
0.14663,0.01955,0.1955,0.01955
0.14663,0.01955,0.16618,0.01955
0.17595,0.01955,0.14663,0.01955
0.16618,0.01955,0.12708,0.01955
0.13685,0.01955,0.10753,0.01955
0.12708,0.01955,0.097752,0.0097752
0.097752,0.01955,0.078201,0.0097752
0.087977,0.01955,0.078201,0.0097752
0.078201,0.0097752,0.068426,0.0097752
0.078201,0.01955,0.068426,0.0097752
0.068426,0.0097752,0.058651,0.0097752
0.058651,0.01955,0.058651,0.01955
0.068426,0.01955,0.058651,0.01955
0.068426,0.0097752,0.048876,0.01955
0.078201,0.01955,0.058651,0.01955
0.078201,0.01955,0.068426,0.01955
0.058651,0.01955,0.087977,0.01955
0.048876,0.01955,0.068426,0.01955
0.039101,0.01955,0.068426,0.0097752
0.029326,0.01955,0.068426,0.0097752
0.029326,0.01955,0.087977,0.0097752
0.01955,0.01955,0.10753,0.0097752
0.01955,0.01955,0.097752,0.0097752
0.01955,0.01955,0.097752,0
0.01955,0.01955,0.1173,0
0.01955,0.01955,0.1564,0
0.029326,0.01955,0.14663,0
0.029326,0.01955,0.12708,0
0.029326,0.01955,0.1173,0
0.029326,0.01955,0.097752,0
0.029326,0.01955,0.087977,0
0.039101,0.01955,0.10753,0
0.029326,0.01955,0.097752,0
0.01955,0.01955,0.097752,0.058651
0.01955,0.01955,0.097752,0.039101
0.01955,0.01955,0.087977,0.039101
0.029326,0.01955,0.087977,0.029326
0.039101,0.01955,0.10753,0.01955
0.048876,0.01955,0.10753,0.01955
0.048876,0.01955,0.097752,0.01955
0.048876,0.01955,0.10753,0.0097752
0.048876,0.01955,0.1173,0.01955
0.039101,0.01955,0.097752,0.0097752
0.029326,0.01955,0.087977,0.01955
0.029326,0.01955,0.087977,0.0097752
0.01955,0.01955,0.087977,0.039101
0.01955,0.01955,0.097752,0.039101
0.01955,0.01955,0.097752,0.029326
0.029326,0.029326,0.12708,0.01955
0.039101,0.01955,0.18573,0.01955
0.048876,0.01955,0.16618,0.01955
0.048876,0.01955,0.14663,0.01955
0.048876,0.01955,0.13685,0.01955
0.039101,0.01955,0.14663,0.0097752
0.039101,0.01955,0.17595,0.0097752
0.048876,0.01955,0.21505,0.01955
0.078201,0.01955,0.1955,0.0097752
0.087977,0.01955,0.20528,0.0097752
0.097752,0.01955,0.25415,0.0097752
0.087977,0.01955,0.25415,0.0097752
0.078201,0.01955,0.21505,0
0.068426,0.01955,0.25415,0
0.068426,0.01955,0.2346,0
0.048876,0.01955,0.28348,0
0.039101,0.01955,0.24438,0
0.039101,0.01955,0.21505,0
0.029326,0.01955,0.1955,0
0.039101,0.01955,0.2346,0
0.029326,0.01955,0.26393,0
0.029326,0.01955,0.24438,0
0.029326,0.01955,0.20528,0
0.029326,0.01955,0.1955,0
0.029326,0.01955,0.22483,0
0.01955,0.01955,0.30303,0
0.01955,0.029326,0.41056,0
0.01955,0.029326,0.36168,0
0.029326,0.029326,0.37146,0
0.029326,0.029326,0.40078,0
0.01955,0.01955,0.42033,0
0.01955,0.01955,0.49853,0
0.029326,0.01955,0.45943,0
0.029326,0.01955,0.40078,0
0.039101,0.029326,0.34213,0
0.039101,0.01955,0.30303,0
0.029326,0.01955,0.26393,0
0.029326,0.01955,0.2737,0
0.029326,0.01955,0.28348,0
0.01955,0.01955,0.26393,0
0.029326,0.029326,0.2346,0
0.029326,0.029326,0.1955,0
0.039101,0.01955,0.16618,0
0.039101,0.01955,0.12708,0
0.039101,0.029326,0.10753,0
0.058651,0.029326,0.097752,0
0.058651,0.029326,0.097752,0
0.087977,0.029326,0.087977,0
0.10753,0.01955,0.068426,0
0.12708,0.01955,0.068426,0
0.13685,0.01955,0.058651,0
0.12708,0.0097752,0.048876,0
0.1173,0.01955,0.039101,0
0.1173,0.029326,0.039101,0
0.10753,0.029326,0.039101,0
0.097752,0.01955,0.029326,0
0.10753,0.01955,0.029326,0
0.097752,0.01955,0.029326,0
0.097752,0.01955,0.029326,0
0.097752,0.01955,0.029326,0
0.087977,0.01955,0.029326,0
0.087977,0.01955,0.029326,0
0.087977,0.01955,0.029326,0
0.078201,0.01955,0.029326,0
0.078201,0.029326,0.039101,0
0.078201,0.01955,0.039101,0
0.097752,0.01955,0.048876,0
0.10753,0.01955,0.058651,0
0.097752,0.029326,0.068426,0
0.097752,0.029326,0.078201,0
0.1173,0.029326,0.078201,0
0.13685,0.029326,0.078201,0
0.13685,0.029326,0.068426,0
0.1955,0.029326,0.058651,0
0.26393,0.029326,0.068426,0
0.32258,0.01955,0.078201,0
0.34213,0.01955,0.087977,0
0.32258,0.01955,0.078201,0
0.32258,0.01955,0.068426,0
0.36168,0.01955,0.068426,0
0.34213,0.01955,0.087977,0
0.41056,0.01955,0.10753,0.0097752
0.43011,0.01955,0.10753,0
0.37146,0.029326,0.13685,0.0097752
0.33236,0.029326,0.13685,0.01955
0.33236,0.029326,0.1173,0.01955
0.37146,0.039101,0.10753,0.029326
0.42033,0.029326,0.13685,0.029326
0.50831,0.039101,0.21505,0.048876
0.55718,0.048876,0.33236,0.058651
0.56696,0.048876,0.40078,0.058651
0.51808,0.048876,0.48876,0.048876
0.43988,0.048876,0.43988,0.058651
0.42033,0.048876,0.42033,0.078201
0.55718,0.039101,0.36168,0.058651
0.60606,0.039101,0.33236,0.078201
0.53763,0.039101,0.28348,0.078201
0.55718,0.029326,0.26393,0.058651
0.46921,0.01955,0.24438,0.039101
0.42033,0.01955,0.24438,0.039101
0.40078,0.0097752,0.22483,0.029326
0.35191,0.0097752,0.20528,0.029326
0.28348,0.0097752,0.17595,0.0097752
0.22483,0.0097752,0.14663,0.0097752
0.17595,0.0097752,0.12708,0.0097752
0.1564,0.0097752,0.10753,0.0097752
0.1564,0.0097752,0.097752,0.0097752
0.14663,0.0097752,0.078201,0.0097752
0.12708,0.0097752,0.078201,0.0097752
0.097752,0.0097752,0.058651,0
0.087977,0.0097752,0.068426,0
0.068426,0.0097752,0.068426,0
0.058651,0.0097752,0.078201,0
0.048876,0.0097752,0.068426,0
0.039101,0.0097752,0.068426,0.0097752
0.039101,0.0097752,0.058651,0.01955
0.029326,0.0097752,0.068426,0.01955
0.029326,0.0097752,0.058651,0.029326
0.029326,0.0097752,0.058651,0.01955
0.029326,0.0097752,0.068426,0.01955
0.039101,0,0.048876,0.0097752
0.039101,0,0.058651,0
0.029326,0,0.048876,0.0097752
0.029326,0,0.048876,0.01955
0.01955,0,0.048876,0.0097752
0.01955,0,0.048876,0.0097752
0.01955,0,0.058651,0
0.029326,0,0.048876,0
0.048876,0,0.048876,0
0.058651,0,0.048876,0
0.068426,0,0.039101,0
0.078201,0,0.048876,0
0.087977,0.0097752,0.058651,0
0.078201,0,0.058651,0
0.097752,0.0097752,0.058651,0
0.097752,0.0097752,0.058651,0.0097752
0.097752,0.0097752,0.048876,0.01955
0.078201,0.0097752,0.039101,0.0097752
0.087977,0.01955,0.048876,0.0097752
0.097752,0.01955,0.058651,0.01955
0.078201,0.01955,0.058651,0.01955
0.078201,0.01955,0.048876,0.01955
0.097752,0.01955,0.078201,0.01955
0.12708,0.01955,0.068426,0.029326
0.14663,0.0097752,0.16618,0.029326
0.1564,0.01955,0.24438,0.01955
0.16618,0.01955,0.21505,0.01955
0.17595,0.0097752,0.17595,0.0097752
0.1955,0.01955,0.14663,0.01955
0.2737,0.01955,0.12708,0.01955
0.33236,0.01955,0.14663,0.0097752
0.33236,0.01955,0.16618,0.0097752
0.28348,0.01955,0.14663,0.0097752
0.2346,0.01955,0.12708,0.0097752
0.21505,0.01955,0.10753,0.0097752
0.22483,0.0097752,0.087977,0.0097752
0.20528,0.01955,0.078201,0.0097752
0.16618,0.0097752,0.097752,0
0.13685,0.0097752,0.1173,0
0.10753,0.0097752,0.12708,0.0097752
0.087977,0.0097752,0.1173,0
0.068426,0.0097752,0.10753,0
0.058651,0.0097752,0.087977,0
0.048876,0.0097752,0.087977,0.0097752
0.048876,0.0097752,0.078201,0.0097752
0.048876,0.0097752,0.058651,0
0.048876,0.0097752,0.058651,0
0.048876,0.0097752,0.058651,0.0097752
0.039101,0.0097752,0.048876,0.0097752
0.029326,0.0097752,0.068426,0.0097752
0.029326,0.0097752,0.068426,0.0097752
0.01955,0.0097752,0.058651,0.0097752
0.01955,0.0097752,0.048876,0.0097752
0.01955,0.0097752,0.048876,0.0097752
0.0097752,0.0097752,0.048876,0
0.01955,0.0097752,0.048876,0
0.01955,0.0097752,0.039101,0
0.01955,0.0097752,0.048876,0
0.029326,0.0097752,0.048876,0
0.01955,0.01955,0.048876,0
0.029326,0.0097752,0.058651,0
0.01955,0.01955,0.078201,0
0.01955,0.01955,0.078201,0
0.029326,0.029326,0.10753,0
0.029326,0.029326,0.087977,0
0.01955,0.029326,0.078201,0
0.029326,0.029326,0.078201,0
0.01955,0.029326,0.087977,0.0097752
0.029326,0.029326,0.078201,0
0.01955,0.039101,0.068426,0.0097752
0.01955,0.048876,0.068426,0
0.029326,0.039101,0.078201,0
0.029326,0.039101,0.078201,0
0.029326,0.048876,0.068426,0
0.029326,0.048876,0.048876,0
0.01955,0.048876,0.048876,0
0.01955,0.039101,0.048876,0
0.0097752,0.078201,0.01955,0.078201
0.17595,1.0362,0.25415,0.55718
0.13685,0.82111,0.21505,0.43988
0.1173,0.64516,0.16618,0.35191
0.087977,0.50831,0.13685,0.2737
0.078201,0.41056,0.1173,0.22483
0.068426,0.33236,0.10753,0.17595
0.048876,0.26393,0.087977,0.14663
0.048876,0.21505,0.078201,0.1173
0.048876,0.17595,0.058651,0.097752
0.048876,0.14663,0.058651,0.097752
0.068426,0.1173,0.068426,0.078201
0.097752,0.097752,0.058651,0.068426
0.10753,0.087977,0.058651,0.058651
0.12708,0.068426,0.058651,0.058651
0.12708,0.058651,0.1173,0.048876
0.12708,0.058651,0.16618,0.039101
0.1173,0.048876,0.21505,0.039101
0.10753,0.039101,0.25415,0.048876
0.087977,0.039101,0.24438,0.048876
0.097752,0.029326,0.22483,0.048876
0.1173,0.029326,0.2346,0.048876
0.14663,0.029326,0.22483,0.058651
0.18573,0.01955,0.20528,0.048876
0.20528,0.029326,0.21505,0.048876
0.22483,0.01955,0.2346,0.039101
0.22483,0.01955,0.1955,0.039101
0.25415,0.01955,0.20528,0.029326
0.25415,0.01955,0.25415,0.029326
0.26393,0.029326,0.22483,0.01955
0.2346,0.029326,0.2346,0.0097752
0.1955,0.029326,0.21505,0.0097752
0.1564,0.029326,0.1955,0.0097752
0.12708,0.01955,0.17595,0.01955
0.10753,0.029326,0.1564,0.0097752
0.097752,0.029326,0.16618,0.0097752
0.097752,0.01955,0.16618,0.0097752
0.097752,0.029326,0.16618,0.0097752
0.097752,0.029326,0.13685,0.0097752
0.097752,0.029326,0.1173,0.0097752
0.078201,0.029326,0.12708,0.0097752
0.068426,0.039101,0.14663,0.0097752
0.068426,0.029326,0.14663,0.0097752
0.068426,0.039101,0.26393,0.01955
0.068426,0.048876,0.31281,0.01955
0.078201,0.039101,0.28348,0.0097752
0.068426,0.039101,0.2737,0.0097752
0.058651,0.048876,0.24438,0.0097752
0.048876,0.048876,0.51808,0.0097752
0.039101,0.039101,0.77224,0.01955
0.039101,0.039101,0.86999,0.0097752
0.029326,0.039101,0.73314,0.0097752
0.029326,0.039101,0.66471,0.0097752
0.01955,0.029326,0.62561,0.0097752
0.01955,0.029326,0.56696,0.0097752
0.01955,0.029326,0.49853,0.0097752
0.01955,0.029326,0.41056,0.0097752
0.01955,0.029326,0.36168,0.0097752
0.0097752,0.039101,0.34213,0.0097752
0.0097752,0.048876,0.48876,0.0097752
0.0097752,0.039101,0.53763,0.0097752
0.0097752,0.039101,0.48876,0.0097752
0.0097752,0.039101,0.43988,0.01955
0.0097752,0.039101,0.39101,0.01955
0.01955,0.039101,0.34213,0.0097752
0.0097752,0.039101,0.2737,0.0097752
0.029326,0.029326,0.24438,0.0097752
0.039101,0.039101,0.20528,0.0097752
0.029326,0.029326,0.18573,0.0097752
0.029326,0.029326,0.14663,0.0097752
0.01955,0.029326,0.1173,0.0097752
0.01955,0.029326,0.14663,0.01955
0.01955,0.029326,0.1564,0.01955
0.01955,0.029326,0.13685,0.01955
0.01955,0.029326,0.13685,0.01955
0.029326,0.029326,0.12708,0.01955
0.048876,0.01955,0.10753,0.01955
0.058651,0.01955,0.10753,0.01955
0.068426,0.029326,0.1564,0.0097752
0.087977,0.029326,0.21505,0.0097752
0.078201,0.029326,0.25415,0.0097752
0.078201,0.029326,0.24438,0.0097752
0.068426,0.01955,0.22483,0.0097752
0.058651,0.029326,0.20528,0.0097752
0.058651,0.01955,0.18573,0.0097752
0.058651,0.029326,0.25415,0
0.058651,0.048876,0.32258,0
0.048876,0.039101,0.37146,0
0.039101,0.039101,0.36168,0.0097752
0.039101,0.039101,0.30303,0
0.029326,0.039101,0.26393,0
0.029326,0.029326,0.30303,0
0.039101,0.01955,0.30303,0
0.048876,0.029326,0.30303,0
0.039101,0.01955,0.2737,0
0.029326,0.01955,0.30303,0
0.029326,0.029326,0.26393,0
0.029326,0.01955,0.25415,0
0.039101,0.029326,0.22483,0
0.039101,0.029326,0.20528,0
0.039101,0.01955,0.17595,0
0.029326,0.01955,0.13685,0
0.01955,0.01955,0.12708,0
0.01955,0.01955,0.10753,0
0.01955,0.01955,0.14663,0
0.029326,0.01955,0.2737,0
0.029326,0.01955,0.30303,0
0.029326,0.029326,0.30303,0
0.029326,0.01955,0.2737,0
0.01955,0.01955,0.22483,0
0.029326,0.01955,0.2346,0
0.029326,0.0097752,0.25415,0
0.029326,0.01955,0.32258,0
0.029326,0.01955,0.33236,0
0.01955,0.01955,0.36168,0
0.029326,0.01955,0.37146,0
0.029326,0.01955,0.31281,0
0.029326,0.01955,0.2737,0
0.039101,0.01955,0.2346,0
0.029326,0.0097752,0.22483,0
0.029326,0.01955,0.22483,0
0.029326,0.01955,0.21505,0
0.029326,0.01955,0.20528,0
0.029326,0.01955,0.18573,0
0.029326,0.01955,0.18573,0
0.029326,0.01955,0.18573,0
0.029326,0.01955,0.18573,0
0.029326,0.029326,0.18573,0
0.029326,0.039101,0.20528,0
0.029326,0.048876,0.1955,0
0.029326,0.048876,0.17595,0
0.029326,0.039101,0.16618,0
0.048876,0.039101,0.17595,0
0.039101,0.048876,0.25415,0
0.048876,0.048876,0.28348,0
0.058651,0.048876,0.26393,0
0.058651,0.048876,0.21505,0
0.058651,0.048876,0.1955,0.0097752
0.068426,0.048876,0.1955,0
0.068426,0.048876,0.1564,0
0.068426,0.039101,0.14663,0
0.058651,0.048876,0.16618,0.0097752
0.068426,0.039101,0.1564,0
0.068426,0.039101,0.13685,0
0.078201,0.039101,0.12708,0.0097752
0.097752,0.048876,0.1564,0.0097752
0.087977,0.048876,0.20528,0.0097752
0.078201,0.039101,0.21505,0.0097752
0.078201,0.039101,0.26393,0.0097752
0.068426,0.039101,0.30303,0.0097752
0.068426,0.039101,0.29326,0.0097752
0.058651,0.039101,0.38123,0.0097752
0.058651,0.039101,0.44966,0.0097752
0.068426,0.039101,0.46921,0.01955
0.058651,0.039101,0.44966,0.01955
0.068426,0.039101,0.38123,0.01955
0.087977,0.039101,0.33236,0.029326
0.10753,0.039101,0.41056,0.01955
0.1564,0.029326,0.42033,0.029326
0.1955,0.039101,0.34213,0.029326
0.18573,0.039101,0.32258,0.01955
0.16618,0.039101,0.32258,0.029326
0.17595,0.029326,0.39101,0.029326
0.22483,0.029326,0.61584,0.029326
0.28348,0.029326,0.56696,0.048876
0.28348,0.029326,0.62561,0.039101
0.24438,0.029326,0.81134,0.048876
0.1955,0.029326,0.99707,0.048876
0.17595,0.029326,1.1437,0.078201
0.13685,0.029326,1.4467,0.058651
0.14663,0.029326,1.5152,0.068426
0.16618,0.029326,1.261,0.058651
0.20528,0.039101,1.0655,0.048876
0.26393,0.029326,0.89932,0.068426
0.32258,0.029326,0.77224,0.058651
0.38123,0.039101,0.61584,0.058651
0.46921,0.039101,0.55718,0.058651
0.56696,0.039101,0.53763,0.048876
0.66471,0.039101,0.51808,0.048876
0.70381,0.039101,0.47898,0.048876
0.60606,0.029326,0.44966,0.048876
0.57674,0.039101,0.44966,0.039101
0.52786,0.029326,0.39101,0.048876
0.65494,0.029326,0.34213,0.048876
0.56696,0.029326,0.28348,0.048876
0.49853,0.029326,0.22483,0.058651
0.44966,0.01955,0.17595,0.048876
0.41056,0.029326,0.14663,0.058651
0.35191,0.029326,0.12708,0.048876
0.28348,0.01955,0.10753,0.039101
0.2346,0.029326,0.087977,0.039101
0.21505,0.01955,0.078201,0.048876
0.18573,0.01955,0.068426,0.039101
0.1564,0.029326,0.068426,0.039101
0.14663,0.029326,0.078201,0.039101
0.14663,0.029326,0.068426,0.039101
0.1564,0.029326,0.078201,0.039101
0.14663,0.01955,0.10753,0.029326
0.12708,0.029326,0.1173,0.029326
0.097752,0.029326,0.12708,0.029326
0.078201,0.039101,0.1564,0.029326
0.068426,0.039101,0.1564,0.029326
0.058651,0.039101,0.16618,0.01955
0.048876,0.039101,0.1955,0.029326
0.048876,0.039101,0.17595,0.029326
0.048876,0.039101,0.18573,0.029326
0.039101,0.029326,0.18573,0.029326
0.039101,0.039101,0.1955,0.029326
0.029326,0.039101,0.21505,0.029326
0.029326,0.039101,0.22483,0.029326
0.01955,0.039101,0.26393,0.01955
0.01955,0.029326,0.24438,0.01955
0.029326,0.029326,0.21505,0.01955
0.01955,0.029326,0.1955,0.01955
0.01955,0.029326,0.17595,0.01955
0.01955,0.029326,0.16618,0.01955
0.01955,0.039101,0.14663,0.01955
0.01955,0.039101,0.12708,0.0097752
0.0097752,0.039101,0.1173,0.01955
0.0097752,0.039101,0.1173,0.01955
0.01955,0.039101,0.097752,0.0097752
0.01955,0.039101,0.097752,0.0097752
0.01955,0.039101,0.078201,0.01955
0.01955,0.029326,0.10753,0.0097752
0.01955,0.039101,0.17595,0.0097752
0.029326,0.029326,0.18573,0.0097752
0.048876,0.029326,0.1955,0.0097752
0.068426,0.039101,0.20528,0.0097752
0.058651,0.039101,0.34213,0.0097752
0.048876,0.039101,0.45943,0.01955
0.058651,0.048876,0.45943,0.0097752
0.058651,0.039101,0.40078,0.0097752
0.087977,0.039101,0.38123,0.0097752
0.10753,0.039101,0.32258,0.01955
0.1173,0.039101,0.28348,0.01955
0.1173,0.039101,0.24438,0.01955
0.13685,0.029326,0.20528,0.01955
0.18573,0.039101,0.16618,0.01955
0.22483,0.039101,0.13685,0.01955
0.22483,0.039101,0.1173,0.0097752
0.20528,0.039101,0.097752,0.01955
0.20528,0.029326,0.087977,0.0097752
0.16618,0.039101,0.068426,0.0097752
0.13685,0.029326,0.058651,0.01955
0.13685,0.039101,0.068426,0.0097752
0.12708,0.029326,0.068426,0.0097752
0.10753,0.029326,0.078201,0.0097752
0.087977,0.029326,0.078201,0.0097752
0.078201,0.029326,0.058651,0.0097752
0.068426,0.029326,0.078201,0.0097752
0.058651,0.029326,0.097752,0.0097752
0.058651,0.01955,0.1173,0.0097752
0.048876,0.01955,0.13685,0.0097752
0.039101,0.029326,0.12708,0.0097752
0.039101,0.01955,0.10753,0.0097752
0.029326,0.029326,0.10753,0.0097752
0.029326,0.029326,0.13685,0.0097752
0.01955,0.01955,0.22483,0.0097752
0.01955,0.029326,0.34213,0.0097752
0.01955,0.01955,0.36168,0.0097752
0.01955,0.01955,0.34213,0.0097752
0.01955,0.029326,0.33236,0.0097752
0.01955,0.01955,0.31281,0.0097752
0.01955,0.01955,0.2737,0.0097752
0.0097752,0.029326,0.25415,0.0097752
0.0097752,0.029326,0.2346,0.01955
0.0097752,0.039101,0.1955,0.0097752
0.0097752,0.039101,0.16618,0.0097752
0.0097752,0.029326,0.20528,0.0097752
0.0097752,0.029326,0.20528,0.0097752
0.01955,0.01955,0.18573,0.0097752
0.0097752,0.01955,0.17595,0.0097752
0.01955,0.01955,0.18573,0.0097752
0.029326,0.01955,0.22483,0.0097752
0.039101,0.01955,0.2346,0.0097752
0.039101,0.01955,0.21505,0.0097752
0.029326,0.0097752,0.20528,0.0097752
0.029326,0.0097752,0.18573,0.0097752
0.039101,0.0097752,0.1564,0.0097752
0.048876,0.0097752,0.12708,0.0097752
0.058651,0.0097752,0.10753,0.0097752
0.048876,0.0097752,0.087977,0
0.039101,0.01955,0.078201,0
0.039101,0.01955,0.087977,0
0.039101,0.01955,0.087977,0
0.039101,0.01955,0.1173,0
0.048876,0.01955,0.13685,0
0.087977,0.01955,0.13685,0
0.14663,0.0097752,0.13685,0
0.1955,0.0097752,0.16618,0
0.20528,0.0097752,0.21505,0
0.16618,0.0097752,0.36168,0
0.13685,0.01955,0.32258,0
0.14663,0.0097752,0.34213,0
0.1564,0.0097752,0.34213,0
0.14663,0.0097752,0.30303,0
0.13685,0.0097752,0.25415,0
0.1173,0.01955,0.24438,0
0.097752,0.0097752,0.24438,0
0.087977,0.0097752,0.2346,0
0.087977,0.0097752,0.21505,0
0.078201,0.0097752,0.18573,0
0.068426,0.0097752,0.1564,0
0.058651,0.0097752,0.13685,0
0.058651,0.0097752,0.12708,0
0.039101,0.0097752,0.1173,0
0.039101,0.0097752,0.1173,0
0.039101,0.01955,0.10753,0
0.029326,0.0097752,0.087977,0
0.029326,0.01955,0.087977,0
0.039101,0.01955,0.10753,0
0.039101,0.01955,0.10753,0
0.029326,0.01955,0.097752,0
0.039101,0.01955,0.087977,0
0.048876,0.01955,0.078201,0
0.039101,0.01955,0.078201,0
0.039101,0.01955,0.087977,0
0.039101,0.01955,0.078201,0
0.039101,0.01955,0.087977,0
0.039101,0.01955,0.12708,0
0.048876,0.01955,0.1955,0
0.048876,0.01955,0.21505,0
0.048876,0.0097752,0.20528,0
0.039101,0.0097752,0.24438,0
0.068426,0.01955,0.31281,0
0.058651,0.01955,0.2737,0
0.058651,0.01955,0.2346,0
0.058651,0.01955,0.1955,0
0.048876,0.01955,0.17595,0
0.048876,0.01955,0.2346,0
0.048876,0.01955,0.25415,0
0.048876,0.029326,0.25415,0
0.048876,0.01955,0.34213,0
0.048876,0.01955,0.32258,0
0.048876,0.01955,0.38123,0
0.048876,0.01955,0.37146,0
0.058651,0.029326,0.36168,0.0097752
0.078201,0.029326,0.30303,0
0.078201,0.01955,0.31281,0
0.087977,0.029326,0.32258,0
0.097752,0.01955,0.38123,0.0097752
0.1173,0.01955,0.35191,0.0097752
0.12708,0.029326,0.31281,0.0097752
0.1564,0.029326,0.31281,0.0097752
0.18573,0.039101,0.30303,0.0097752
0.22483,0.039101,0.26393,0.0097752
0.29326,0.039101,0.2346,0.0097752
0.26393,0.039101,0.28348,0.0097752
0.30303,0.039101,0.37146,0.0097752
0.2737,0.039101,0.54741,0.0097752
0.2737,0.029326,0.54741,0.01955
0.29326,0.029326,0.59629,0.01955
0.32258,0.01955,0.62561,0.01955
0.33236,0.01955,0.73314,0.01955
0.31281,0.01955,0.96774,0.01955
0.34213,0.01955,1.1632,0.01955
0.40078,0.01955,1.1241,0.029326
0.46921,0.01955,0.99707,0.029326
0.59629,0.01955,0.86999,0.029326
0.76246,0.01955,0.75269,0.029326
0.73314,0.029326,0.69404,0.029326
0.69404,0.01955,0.60606,0.029326
0.56696,0.029326,0.48876,0.029326
0.50831,0.029326,0.39101,0.029326
1.085,0.01955,0.35191,0.029326
1.0459,0.01955,0.32258,0.039101
0.88954,0.01955,0.30303,0.039101
0.76246,0.01955,0.24438,0.039101
0.65494,0.029326,0.1955,0.039101
0.59629,0.029326,0.17595,0.039101
0.53763,0.029326,0.17595,0.039101
0.46921,0.029326,0.14663,0.039101
0.38123,0.029326,0.1173,0.039101
0.30303,0.01955,0.1173,0.039101
0.26393,0.01955,0.097752,0.039101
0.21505,0.01955,0.087977,0.048876
0.18573,0.01955,0.087977,0.058651
0.16618,0.01955,0.078201,0.048876
0.16618,0.01955,0.087977,0.058651
0.16618,0.01955,0.12708,0.078201
0.14663,0.01955,0.12708,0.068426
0.1173,0.01955,0.10753,0.068426
0.10753,0.01955,0.10753,0.078201
0.078201,0.01955,0.1173,0.068426
0.068426,0.01955,0.1173,0.068426
0.058651,0.029326,0.10753,0.068426
0.048876,0.01955,0.1173,0.068426
0.048876,0.01955,0.1173,0.058651
0.039101,0.01955,0.1173,0.048876
0.039101,0.01955,0.10753,0.048876
0.058651,0.01955,0.097752,0.039101
0.078201,0.01955,0.087977,0.048876
0.068426,0.029326,0.087977,0.048876
0.058651,0.01955,0.13685,0.048876
0.058651,0.029326,0.17595,0.048876
0.039101,0.029326,0.1955,0.048876
0.039101,0.01955,0.17595,0.039101
0.048876,0.029326,0.24438,0.039101
0.048876,0.01955,0.30303,0.029326
0.039101,0.01955,0.31281,0.039101
0.039101,0.01955,0.31281,0.029326
0.039101,0.01955,0.31281,0.039101
0.048876,0.029326,0.2737,0.039101
0.048876,0.01955,0.22483,0.039101
0.058651,0.029326,0.2346,0.048876
0.068426,0.029326,0.30303,0.039101
0.068426,0.01955,0.31281,0.039101
0.068426,0.029326,0.33236,0.039101
0.058651,0.029326,0.34213,0.039101
0.048876,0.029326,0.36168,0.039101
0.048876,0.029326,0.34213,0.039101
0.078201,0.029326,0.31281,0.048876
0.13685,0.029326,0.37146,0.039101
0.1955,0.029326,0.41056,0.039101
0.17595,0.029326,0.37146,0.039101
0.17595,0.01955,0.32258,0.039101
0.18573,0.01955,0.26393,0.029326
0.17595,0.029326,0.21505,0.029326
0.14663,0.029326,0.20528,0.029326
0.12708,0.029326,0.1955,0.029326
0.097752,0.029326,0.1955,0.01955
0.097752,0.029326,0.18573,0.01955
0.10753,0.01955,0.16618,0.01955
0.097752,0.01955,0.12708,0.0097752
0.097752,0.01955,0.10753,0.01955
0.1173,0.029326,0.087977,0.01955
0.10753,0.029326,0.078201,0.01955
0.097752,0.029326,0.068426,0.01955
0.087977,0.039101,0.058651,0.01955
0.078201,0.029326,0.058651,0.0097752
0.058651,0.01955,0.048876,0.0097752
0.058651,0.029326,0.048876,0.0097752
0.048876,0.029326,0.048876,0.0097752
0.039101,0.039101,0.048876,0.01955
0.039101,0.039101,0.048876,0.01955
0.039101,0.029326,0.048876,0.01955
0.039101,0.029326,0.048876,0.0097752
0.039101,0.029326,0.048876,0.0097752
0.029326,0.029326,0.048876,0.0097752
0.01955,0.029326,0.058651,0.0097752
0.01955,0.029326,0.058651,0.0097752
0.01955,0.029326,0.058651,0.0097752
0.01955,0.029326,0.058651,0.0097752
0.01955,0.048876,0.058651,0.01955
0.01955,0.039101,0.048876,0.0097752
0.01955,0.039101,0.048876,0.0097752
0.0097752,0.029326,0.058651,0.0097752
0.0097752,0.029326,0.068426,0.01955
0.0097752,0.029326,0.078201,0.01955
0.0097752,0.01955,0.068426,0.0097752
0.0097752,0.01955,0.068426,0.0097752
0.0097752,0.039101,0.058651,0.0097752
0.0097752,0.058651,0.058651,0.0097752
0.0097752,0.048876,0.048876,0.0097752
0.0097752,0.048876,0.039101,0.0097752
0.01955,0.039101,0.048876,0
0.0097752,0.039101,0.048876,0
0.0097752,0.039101,0.068426,0
0.0097752,0.039101,0.068426,0
0.0097752,0.029326,0.1564,0
0.01955,0.029326,0.1564,0
0.01955,0.01955,0.1564,0
0.01955,0.01955,0.14663,0
0.01955,0.01955,0.12708,0
0.01955,0.01955,0.1173,0
0.01955,0.01955,0.097752,0
0.0097752,0.01955,0.14663,0
0.0097752,0.01955,0.17595,0
0.0097752,0.01955,0.17595,0
0.0097752,0.01955,0.17595,0
0.029326,0.01955,0.1564,0
0.039101,0.01955,0.12708,0
0.048876,0.01955,0.13685,0
0.048876,0.01955,0.12708,0
0.039101,0.0097752,0.10753,0
0.039101,0.0097752,0.10753,0
0.039101,0.0097752,0.097752,0
0.039101,0.0097752,0.078201,0
0.039101,0.0097752,0.078201,0
0.039101,0.0097752,0.068426,0
0.039101,0.01955,0.058651,0
0.039101,0.0097752,0.068426,0
0.039101,0.01955,0.068426,0
0.039101,0.0097752,0.058651,0
0.029326,0.01955,0.087977,0
0.029326,0.01955,0.097752,0
0.029326,0.01955,0.10753,0
0.029326,0.029326,0.10753,0
0.029326,0.029326,0.10753,0
0.029326,0.029326,0.097752,0
0.029326,0.029326,0.078201,0
0.048876,0.029326,0.078201,0
0.048876,0.029326,0.097752,0
0.058651,0.029326,0.097752,0
0.058651,0.029326,0.097752,0
0.058651,0.029326,0.078201,0
0.048876,0.01955,0.097752,0
0.048876,0.01955,0.1173,0
0.058651,0.01955,0.1173,0
0.068426,0.01955,0.097752,0
0.058651,0.01955,0.097752,0
0.058651,0.01955,0.17595,0
0.058651,0.01955,0.16618,0
0.058651,0.01955,0.14663,0
0.058651,0.01955,0.13685,0
0.048876,0.01955,0.12708,0
0.048876,0.01955,0.12708,0
0.068426,0.01955,0.13685,0
0.087977,0.029326,0.16618,0
0.10753,0.01955,0.24438,0
0.1173,0.01955,0.34213,0
0.097752,0.029326,0.32258,0
0.087977,0.029326,0.28348,0
0.078201,0.029326,0.24438,0
0.068426,0.029326,0.31281,0
0.068426,0.029326,0.42033,0
0.068426,0.029326,0.46921,0
0.058651,0.01955,0.43011,0
0.048876,0.01955,0.42033,0
0.048876,0.01955,0.39101,0
0.058651,0.01955,0.37146,0
0.068426,0.01955,0.47898,0
0.087977,0.01955,0.74291,0
0.10753,0.01955,0.72336,0
0.087977,0.01955,0.66471,0
0.097752,0.01955,0.63539,0
0.12708,0.01955,0.63539,0
0.16618,0.01955,0.59629,0
0.22483,0.01955,0.65494,0
0.2346,0.01955,0.74291,0
0.20528,0.01955,1.1632,0
0.17595,0.01955,1.2512,0
0.14663,0.01955,1.5445,0
0.16618,0.01955,1.5445,0
0.20528,0.01955,1.3978,0
0.2346,0.01955,1.2023,0
0.2737,0.01955,1.0068,0
0.31281,0.01955,0.86022,0
0.38123,0.01955,0.74291,0
0.45943,0.029326,0.61584,0
0.61584,0.029326,0.49853,0.0097752
0.71359,0.029326,0.43988,0.0097752
0.86999,0.01955,0.39101,0.0097752
0.85044,0.01955,0.41056,0.0097752
0.88954,0.01955,0.35191,0.01955
1.2903,0.01955,0.29326,0.01955
1.1535,0.01955,0.2737,0.01955
0.92864,0.01955,0.2346,0.029326
0.79179,0.01955,0.22483,0.029326
0.71359,0.01955,0.20528,0.029326
0.63539,0.029326,0.18573,0.029326
0.54741,0.01955,0.1564,0.01955
0.44966,0.01955,0.14663,0.01955
0.36168,0.01955,0.14663,0.01955
0.28348,0.01955,0.13685,0.01955
0.2346,0.029326,0.1564,0.029326
0.21505,0.029326,0.14663,0.029326
0.1955,0.01955,0.1564,0.029326
0.17595,0.01955,0.1564,0.029326
0.16618,0.01955,0.13685,0.01955
0.1564,0.01955,0.1173,0.01955
0.14663,0.029326,0.10753,0.029326
0.13685,0.01955,0.10753,0.029326
0.1173,0.029326,0.12708,0.039101
0.097752,0.029326,0.12708,0.048876
0.087977,0.029326,0.10753,0.048876
0.068426,0.039101,0.087977,0.039101
0.068426,0.029326,0.078201,0.048876
0.068426,0.039101,0.10753,0.048876
0.058651,0.029326,0.13685,0.048876
0.048876,0.029326,0.14663,0.039101
0.058651,0.029326,0.12708,0.039101
0.078201,0.029326,0.1173,0.039101
0.087977,0.029326,0.13685,0.029326
0.087977,0.029326,0.17595,0.039101
0.087977,0.029326,0.22483,0.039101
0.087977,0.029326,0.18573,0.029326
0.087977,0.029326,0.16618,0.039101
0.078201,0.029326,0.13685,0.048876
0.058651,0.029326,0.13685,0.048876
0.068426,0.039101,0.1564,0.039101
0.058651,0.029326,0.1955,0.039101
0.068426,0.029326,0.21505,0.029326
0.078201,0.039101,0.16618,0.029326
0.068426,0.039101,0.1564,0.029326
0.058651,0.039101,0.1564,0.01955
0.068426,0.039101,0.24438,0.01955
0.068426,0.039101,0.25415,0.01955
0.068426,0.039101,0.28348,0.01955
0.058651,0.039101,0.29326,0.01955
0.039101,0.039101,0.37146,0.01955
0.039101,0.048876,0.70381,0.029326
0.048876,0.048876,0.99707,0.029326
0.058651,0.039101,1.1241,0.039101
0.068426,0.048876,1.2023,0.039101
0.068426,0.048876,1.1339,0.029326
0.068426,0.048876,0.97752,0.01955
0.058651,0.048876,0.79179,0.01955
0.058651,0.058651,0.63539,0.01955
0.058651,0.048876,0.52786,0.01955
0.068426,0.058651,0.43988,0.01955
0.078201,0.058651,0.35191,0.029326
0.068426,0.048876,0.29326,0.01955
0.078201,0.048876,0.24438,0.029326
0.078201,0.048876,0.22483,0.029326
0.087977,0.048876,0.18573,0.01955
0.097752,0.039101,0.17595,0.029326
0.068426,0.039101,0.14663,0.01955
0.058651,0.039101,0.13685,0.01955
0.048876,0.039101,0.1173,0.01955
0.039101,0.039101,0.10753,0.01955
0.029326,0.039101,0.097752,0.01955
0.029326,0.039101,0.087977,0.01955
0.01955,0.039101,0.078201,0.01955
0.0097752,0.039101,0.078201,0.01955
0.0097752,0.039101,0.068426,0.01955
0.0097752,0.039101,0.068426,0.029326
0.01955,0.039101,0.068426,0.029326
0.0097752,0.048876,0.058651,0.029326
0.0097752,0.039101,0.078201,0.01955
0.0097752,0.048876,0.1173,0.01955
0.0097752,0.048876,0.1564,0.0097752
0.0097752,0.058651,0.14663,0.0097752
0.0097752,0.048876,0.12708,0.01955
0.0097752,0.048876,0.12708,0.0097752
0.01955,0.048876,0.12708,0.0097752
0.029326,0.048876,0.12708,0.0097752
0.029326,0.039101,0.12708,0.0097752
0.029326,0.048876,0.12708,0.01955
0.029326,0.039101,0.12708,0.0097752
0.01955,0.039101,0.1173,0.0097752
0.0097752,0.029326,0.1173,0.0097752
0.0097752,0.039101,0.12708,0.0097752
0.0097752,0.039101,0.12708,0.0097752
0.0097752,0.039101,0.1173,0.0097752
0.0097752,0.039101,0.10753,0.0097752
0.0097752,0.039101,0.10753,0.0097752
0.01955,0.048876,0.12708,0.0097752
0.01955,0.048876,0.26393,0.0097752
0.029326,0.048876,0.28348,0.0097752
0.01955,0.048876,0.25415,0.0097752
0.029326,0.048876,0.21505,0.0097752
0.01955,0.058651,0.1955,0.0097752
0.0097752,0.068426,0.18573,0.0097752
0.0097752,0.068426,0.16618,0.0097752
0.0097752,0.058651,0.17595,0.0097752
0.0097752,0.068426,0.21505,0
0.0097752,0.068426,0.26393,0.0097752
0.0097752,0.068426,0.29326,0.0097752
0.0097752,0.068426,0.2737,0.0097752
0.0097752,0.068426,0.30303,0
0.0097752,0.058651,0.37146,0
0.029326,0.058651,0.43011,0.0097752
0.029326,0.058651,0.44966,0
0.039101,0.058651,0.42033,0
0.048876,0.058651,0.39101,0
0.058651,0.048876,0.36168,0
0.048876,0.048876,0.33236,0
0.048876,0.048876,0.29326,0
0.058651,0.048876,0.25415,0
0.048876,0.048876,0.22483,0
0.048876,0.048876,0.1955,0
0.039101,0.048876,0.17595,0
0.039101,0.048876,0.14663,0
0.039101,0.048876,0.13685,0
0.048876,0.048876,0.13685,0
0.039101,0.039101,0.1173,0
0.039101,0.048876,0.10753,0
0.058651,0.048876,0.10753,0
0.068426,0.039101,0.13685,0
0.068426,0.039101,0.13685,0
0.087977,0.039101,0.12708,0
0.087977,0.039101,0.1173,0
0.068426,0.039101,0.14663,0
0.068426,0.039101,0.16618,0
0.068426,0.029326,0.14663,0
0.068426,0.039101,0.13685,0
0.078201,0.029326,0.14663,0
0.068426,0.029326,0.13685,0
0.068426,0.039101,0.1173,0
0.068426,0.029326,0.10753,0
0.068426,0.029326,0.097752,0
0.078201,0.029326,0.10753,0
0.078201,0.029326,0.1173,0
0.078201,0.029326,0.13685,0
0.10753,0.029326,0.12708,0
0.1173,0.039101,0.1173,0
0.1173,0.039101,0.10753,0
0.10753,0.029326,0.097752,0
0.10753,0.029326,0.1173,0
0.097752,0.029326,0.1173,0
0.087977,0.029326,0.1564,0
0.078201,0.029326,0.14663,0
0.078201,0.029326,0.14663,0
0.078201,0.029326,0.17595,0
0.078201,0.029326,0.21505,0
0.078201,0.029326,0.17595,0
0.078201,0.039101,0.38123,0
0.097752,0.029326,0.42033,0
0.12708,0.029326,0.46921,0
0.1564,0.029326,0.66471,0
0.18573,0.029326,0.65494,0
0.24438,0.029326,0.85044,0
0.29326,0.029326,0.73314,0
0.33236,0.029326,0.75269,0
0.34213,0.029326,0.79179,0
0.29326,0.029326,0.76246,0
0.2346,0.029326,0.73314,0
0.20528,0.029326,0.76246,0
0.22483,0.029326,0.71359,0
0.2737,0.029326,0.63539,0
0.33236,0.029326,0.69404,0
0.37146,0.029326,0.80156,0
0.39101,0.029326,0.74291,0
0.43011,0.029326,0.72336,0
0.52786,0.029326,0.83089,0
0.52786,0.029326,0.88954,0.0097752
0.46921,0.029326,1.0948,0.0097752
0.43011,0.029326,1.5152,0.0097752
0.35191,0.039101,1.6129,0.0097752
0.34213,0.039101,1.3783,0.0097752
0.51808,0.039101,1.1144,0.0097752
0.61584,0.029326,0.89932,0.0097752
0.52786,0.029326,0.73314,0.0097752
0.60606,0.029326,0.61584,0.01955
0.58651,0.029326,0.54741,0.01955
0.48876,0.029326,0.47898,0.01955
0.41056,0.029326,0.44966,0.01955
0.39101,0.029326,0.37146,0.01955
0.38123,0.029326,0.31281,0.01955
0.37146,0.029326,0.30303,0.01955
0.31281,0.029326,0.30303,0.01955
0.24438,0.029326,0.29326,0.029326
0.20528,0.039101,0.2737,0.029326
0.16618,0.039101,0.28348,0.029326
0.13685,0.039101,0.25415,0.029326
0.12708,0.029326,0.24438,0.029326
0.13685,0.039101,0.26393,0.029326
0.13685,0.039101,0.25415,0.029326
0.1173,0.039101,0.24438,0.01955
0.097752,0.039101,0.24438,0.029326
0.078201,0.039101,0.2346,0.029326
0.068426,0.039101,0.24438,0.029326
0.068426,0.039101,0.20528,0.029326
0.058651,0.039101,0.17595,0.029326
0.048876,0.048876,0.14663,0.039101
0.039101,0.048876,0.17595,0.039101
0.039101,0.048876,0.18573,0.039101
0.039101,0.048876,0.17595,0.048876
0.029326,0.048876,0.16618,0.058651
0.01955,0.048876,0.14663,0.068426
0.01955,0.048876,0.1173,0.058651
0.029326,0.048876,0.13685,0.058651
0.01955,0.048876,0.1173,0.048876
0.01955,0.048876,0.097752,0.039101
0.029326,0.048876,0.087977,0.039101
0.039101,0.048876,0.078201,0.039101
0.048876,0.048876,0.078201,0.029326
0.058651,0.058651,0.097752,0.029326
0.078201,0.058651,0.13685,0.029326
0.087977,0.048876,0.1173,0.029326
0.078201,0.048876,0.1173,0.01955
0.058651,0.048876,0.14663,0.01955
0.039101,0.048876,0.14663,0.01955
0.039101,0.058651,0.12708,0.029326
0.029326,0.048876,0.14663,0.029326
0.029326,0.048876,0.1564,0.029326
0.029326,0.048876,0.1564,0.029326
0.058651,0.048876,0.13685,0.029326
0.078201,0.048876,0.1173,0.039101
0.087977,0.039101,0.12708,0.029326
0.068426,0.039101,0.14663,0.029326
0.058651,0.039101,0.1564,0.029326
0.048876,0.039101,0.13685,0.029326
0.058651,0.039101,0.1173,0.029326
0.068426,0.039101,0.12708,0.01955
0.078201,0.029326,0.18573,0.029326
0.10753,0.029326,0.18573,0.039101
0.12708,0.029326,0.1564,0.039101
0.1173,0.029326,0.14663,0.039101
0.14663,0.039101,0.13685,0.029326
0.1564,0.039101,0.13685,0.029326
0.1564,0.048876,0.1173,0.01955
0.17595,0.048876,0.1173,0.029326
0.1564,0.048876,0.10753,0.029326
0.13685,0.039101,0.10753,0.01955
0.1173,0.048876,0.087977,0.01955
0.087977,0.048876,0.087977,0.0097752
0.068426,0.039101,0.097752,0.0097752
0.068426,0.039101,0.087977,0.0097752
0.058651,0.039101,0.087977,0.0097752
0.058651,0.029326,0.087977,0.0097752
0.039101,0.039101,0.087977,0.0097752
0.029326,0.039101,0.087977,0.0097752
0.029326,0.029326,0.068426,0.0097752
0.029326,0.029326,0.068426,0.01955
0.01955,0.029326,0.078201,0.0097752
0.01955,0.01955,0.097752,0.0097752
0.0097752,0.029326,0.097752,0.0097752
0.0097752,0.039101,0.097752,0.01955
0.0097752,0.048876,0.097752,0.01955
0.0097752,0.048876,0.12708,0.01955
0.0097752,0.039101,0.25415,0.01955
0.0097752,0.039101,0.22483,0.01955
0.0097752,0.029326,0.20528,0.0097752
0.0097752,0.029326,0.17595,0.0097752
0.0097752,0.029326,0.14663,0.0097752
0.01955,0.029326,0.13685,0.0097752
0.039101,0.039101,0.12708,0.0097752
0.048876,0.029326,0.10753,0.0097752
0.048876,0.029326,0.097752,0.0097752
0.039101,0.029326,0.087977,0.0097752
0.029326,0.01955,0.078201,0.0097752
0.029326,0.029326,0.068426,0.0097752
0.039101,0.01955,0.087977,0.0097752
0.048876,0.029326,0.087977,0.0097752
0.058651,0.029326,0.078201,0.0097752
0.068426,0.01955,0.068426,0.0097752
0.068426,0.029326,0.068426,0.0097752
0.068426,0.029326,0.068426,0.01955
0.058651,0.029326,0.068426,0.0097752
0.048876,0.029326,0.068426,0.0097752
0.039101,0.029326,0.087977,0.0097752
0.029326,0.01955,0.16618,0.0097752
0.029326,0.01955,0.16618,0.0097752
0.039101,0.01955,0.22483,0.0097752
0.029326,0.01955,0.21505,0.01955
0.029326,0.01955,0.21505,0.01955
0.029326,0.029326,0.18573,0.01955
0.029326,0.01955,0.1564,0.01955
0.039101,0.01955,0.14663,0.0097752
0.058651,0.01955,0.12708,0.0097752
0.068426,0.01955,0.10753,0.0097752
0.068426,0.029326,0.097752,0.0097752
0.058651,0.01955,0.097752,0.0097752
0.068426,0.01955,0.10753,0.0097752
0.068426,0.01955,0.10753,0.0097752
0.068426,0.01955,0.097752,0.0097752
0.087977,0.01955,0.087977,0.0097752
0.097752,0.01955,0.097752,0.0097752
0.097752,0.01955,0.12708,0.0097752
0.10753,0.01955,0.14663,0
0.097752,0.029326,0.13685,0.0097752
0.087977,0.029326,0.14663,0
0.078201,0.029326,0.13685,0
0.058651,0.01955,0.1173,0
0.068426,0.01955,0.13685,0
0.068426,0.01955,0.16618,0
0.058651,0.01955,0.17595,0
0.058651,0.029326,0.14663,0
0.058651,0.029326,0.12708,0
0.058651,0.029326,0.1173,0
0.058651,0.029326,0.1173,0
0.068426,0.01955,0.12708,0
0.058651,0.029326,0.12708,0
0.058651,0.01955,0.10753,0
0.048876,0.029326,0.1173,0
0.039101,0.029326,0.12708,0
0.048876,0.01955,0.1564,0
0.048876,0.029326,0.16618,0
0.058651,0.01955,0.18573,0
0.068426,0.01955,0.16618,0
0.078201,0.029326,0.20528,0
0.087977,0.01955,0.25415,0
0.087977,0.01955,0.25415,0
0.078201,0.01955,0.29326,0
0.087977,0.01955,0.38123,0
0.097752,0.01955,0.32258,0.0097752
0.087977,0.01955,0.2737,0.0097752
0.078201,0.01955,0.24438,0.0097752
0.097752,0.01955,0.28348,0
0.12708,0.029326,0.26393,0.0097752
0.16618,0.01955,0.25415,0.0097752
0.18573,0.01955,0.44966,0.0097752
0.1955,0.01955,0.53763,0.0097752
0.17595,0.01955,0.72336,0.0097752
0.14663,0.01955,0.66471,0.0097752
0.13685,0.01955,0.55718,0.0097752
0.13685,0.01955,0.47898,0.0097752
0.16618,0.01955,0.44966,0.0097752
0.17595,0.01955,0.37146,0
0.1564,0.029326,0.32258,0.0097752
0.13685,0.01955,0.34213,0.0097752
0.1173,0.01955,0.58651,0.0097752
0.1173,0.01955,0.66471,0
0.1173,0.01955,0.54741,0.0097752
0.10753,0.01955,0.46921,0.0097752
0.097752,0.01955,0.40078,0.0097752
0.1173,0.01955,0.43011,0.0097752
0.1564,0.029326,0.57674,0.0097752
0.1955,0.01955,0.73314,0.0097752
0.21505,0.01955,0.67449,0.0097752
0.1955,0.01955,0.79179,0.0097752
0.1564,0.01955,0.67449,0.0097752
0.13685,0.01955,0.65494,0.01955
0.12708,0.01955,0.62561,0.0097752
0.1173,0.01955,0.55718,0.0097752
0.13685,0.01955,0.61584,0.0097752
0.17595,0.01955,0.65494,0.01955
0.1955,0.029326,0.53763,0.0097752
0.2346,0.029326,0.43988,0.0097752
0.28348,0.01955,0.40078,0.0097752
0.35191,0.01955,0.40078,0.0097752
0.46921,0.01955,0.34213,0.0097752
0.59629,0.01955,0.29326,0.01955
0.76246,0.01955,0.2737,0.01955
0.76246,0.01955,0.24438,0.01955
0.69404,0.01955,0.1955,0.01955
0.74291,0.01955,0.16618,0.01955
0.98729,0.01955,0.13685,0.01955
0.84066,0.01955,0.12708,0.01955
0.69404,0.01955,0.13685,0.01955
0.59629,0.01955,0.17595,0.01955
0.55718,0.01955,0.1955,0.01955
0.48876,0.01955,0.18573,0.01955
0.42033,0.029326,0.16618,0.01955
0.33236,0.01955,0.16618,0.01955
0.29326,0.029326,0.14663,0.01955
0.24438,0.029326,0.12708,0.01955
0.21505,0.029326,0.14663,0.01955
0.18573,0.029326,0.16618,0.029326
0.16618,0.01955,0.18573,0.01955
0.17595,0.01955,0.16618,0.01955
0.17595,0.01955,0.1564,0.01955
0.17595,0.01955,0.14663,0.01955
0.1564,0.029326,0.1564,0.029326
0.13685,0.029326,0.21505,0.029326
0.10753,0.029326,0.26393,0.01955
0.087977,0.029326,0.24438,0.029326
0.068426,0.01955,0.21505,0.029326
0.058651,0.029326,0.21505,0.029326
0.058651,0.029326,0.29326,0.029326
0.078201,0.01955,0.33236,0.039101
0.068426,0.029326,0.30303,0.029326
0.078201,0.029326,0.30303,0.039101
0.078201,0.029326,0.28348,0.039101
0.058651,0.029326,0.25415,0.048876
0.058651,0.01955,0.22483,0.039101
0.058651,0.01955,0.24438,0.039101
0.058651,0.01955,0.26393,0.039101
0.058651,0.01955,0.25415,0.048876
0.058651,0.01955,0.21505,0.048876
0.058651,0.01955,0.20528,0.039101
0.048876,0.01955,0.1955,0.039101
0.048876,0.01955,0.17595,0.048876
0.039101,0.029326,0.14663,0.048876
0.039101,0.029326,0.17595,0.048876
0.058651,0.029326,0.1564,0.058651
0.058651,0.01955,0.13685,0.048876
0.048876,0.01955,0.13685,0.048876
0.048876,0.01955,0.1564,0.048876
0.039101,0.01955,0.18573,0.048876
0.039101,0.029326,0.20528,0.048876
0.048876,0.01955,0.20528,0.039101
0.048876,0.029326,0.32258,0.039101
0.039101,0.029326,0.30303,0.039101
0.039101,0.029326,0.30303,0.029326
0.039101,0.029326,0.30303,0.029326
0.039101,0.01955,0.24438,0.01955
0.029326,0.029326,0.24438,0.01955
0.029326,0.029326,0.2737,0.01955
0.029326,0.029326,0.24438,0.01955
0.048876,0.039101,0.26393,0.01955
0.058651,0.029326,0.28348,0.029326
0.058651,0.029326,0.2737,0.039101
0.058651,0.029326,0.2346,0.029326
0.048876,0.029326,0.1955,0.029326
0.039101,0.029326,0.1955,0.029326
0.048876,0.029326,0.18573,0.029326
0.039101,0.029326,0.21505,0.029326
0.058651,0.029326,0.20528,0.029326
0.058651,0.029326,0.17595,0.01955
0.058651,0.039101,0.1564,0.01955
0.048876,0.039101,0.13685,0.01955
0.039101,0.048876,0.12708,0.029326
0.039101,0.048876,0.10753,0.029326
0.029326,0.048876,0.097752,0.029326
0.029326,0.039101,0.087977,0.039101
0.01955,0.039101,0.078201,0.029326
0.01955,0.029326,0.068426,0.029326
0.01955,0.029326,0.058651,0.029326
0.01955,0.01955,0.068426,0.01955
0.029326,0.01955,0.058651,0.01955
0.029326,0.029326,0.058651,0.01955
0.029326,0.029326,0.068426,0.0097752
0.029326,0.039101,0.097752,0.0097752
0.029326,0.029326,0.1173,0.0097752
0.039101,0.01955,0.1173,0.01955
0.029326,0.029326,0.10753,0.01955
0.029326,0.01955,0.097752,0.01955
0.029326,0.01955,0.097752,0.01955
0.029326,0.01955,0.097752,0.01955
0.029326,0.01955,0.097752,0.0097752
0.029326,0.01955,0.097752,0.0097752
0.029326,0.01955,0.087977,0.0097752
0.039101,0.01955,0.1173,0.0097752
0.058651,0.01955,0.16618,0.0097752
0.068426,0.01955,0.17595,0.0097752
0.068426,0.01955,0.17595,0.0097752
0.068426,0.0097752,0.1564,0.0097752
0.0097752,0.10753,0.029326,0.01955
0.2346,1.2317,0.32258,0.01955
0.20528,0.96774,0.26393,0.01955
0.17595,0.77224,0.21505,0.01955
0.14663,0.61584,0.17595,0.01955
0.1173,0.49853,0.13685,0.01955
0.097752,0.39101,0.1173,0.0097752
0.087977,0.32258,0.10753,0.0097752
0.13685,0.26393,0.097752,0.01955
0.16618,0.21505,0.087977,0.01955
0.14663,0.18573,0.068426,0.01955
0.13685,0.14663,0.058651,0.01955
0.10753,0.12708,0.058651,0.01955
0.10753,0.10753,0.068426,0.01955
0.10753,0.087977,0.087977,0.01955
0.1173,0.078201,0.10753,0.01955
0.097752,0.078201,0.1564,0.01955
0.087977,0.068426,0.14663,0.0097752
0.078201,0.058651,0.1564,0.0097752
0.078201,0.058651,0.17595,0.01955
0.068426,0.048876,0.16618,0.01955
0.068426,0.039101,0.1564,0.0097752
0.068426,0.048876,0.14663,0.0097752
0.058651,0.048876,0.14663,0.0097752
0.058651,0.048876,0.13685,0.0097752
0.058651,0.039101,0.12708,0.0097752
0.078201,0.048876,0.1564,0.0097752
0.10753,0.048876,0.13685,0.0097752
0.097752,0.058651,0.1564,0.0097752
0.097752,0.048876,0.16618,0.0097752
0.12708,0.048876,0.13685,0.0097752
0.16618,0.048876,0.12708,0.0097752
0.18573,0.048876,0.1173,0.01955
0.1564,0.048876,0.1173,0.0097752
0.14663,0.048876,0.14663,0.0097752
0.12708,0.039101,0.14663,0.0097752
0.1173,0.048876,0.13685,0.0097752
0.1173,0.048876,0.12708,0.0097752
0.1173,0.048876,0.12708,0.0097752
0.10753,0.048876,0.10753,0.01955
0.078201,0.058651,0.14663,0.01955
0.068426,0.048876,0.13685,0.01955
0.058651,0.048876,0.13685,0.01955
0.058651,0.048876,0.14663,0.01955
0.068426,0.048876,0.16618,0.01955
0.058651,0.048876,0.20528,0.01955
0.068426,0.068426,0.18573,0.039101
0.058651,0.058651,0.1564,0.029326
0.048876,0.068426,0.16618,0.029326
0.058651,0.058651,0.16618,0.029326
0.058651,0.058651,0.16618,0.029326
0.058651,0.068426,0.14663,0.01955
0.058651,0.058651,0.14663,0.01955
0.068426,0.078201,0.17595,0.01955
0.058651,0.068426,0.16618,0.0097752
0.048876,0.068426,0.1564,0.0097752
0.048876,0.068426,0.17595,0.0097752
0.048876,0.058651,0.28348,0.0097752
0.058651,0.058651,0.29326,0
0.058651,0.048876,0.45943,0.0097752
0.068426,0.048876,0.48876,0.0097752
0.078201,0.058651,0.49853,0.01955
0.068426,0.048876,0.47898,0.01955
0.068426,0.048876,0.48876,0.01955
0.068426,0.048876,0.42033,0.01955
0.078201,0.048876,0.38123,0.01955
0.087977,0.048876,0.38123,0.029326
0.078201,0.048876,0.34213,0.039101
0.078201,0.058651,0.30303,0.039101
0.097752,0.058651,0.33236,0.029326
0.087977,0.058651,0.30303,0.039101
0.097752,0.058651,0.2737,0.039101
0.12708,0.068426,0.37146,0.039101
0.16618,0.058651,0.81134,0.039101
0.1564,0.058651,1.0068,0.039101
0.14663,0.058651,1.349,0.029326
0.16618,0.048876,1.3978,0.029326
0.17595,0.048876,1.4956,0.01955
0.17595,0.048876,1.2903,0.01955
0.1564,0.048876,1.0655,0.01955
0.13685,0.048876,0.84066,0.01955
0.1173,0.048876,0.67449,0.0097752
0.10753,0.058651,0.56696,0.0097752
0.097752,0.058651,0.53763,0.0097752
0.097752,0.058651,0.51808,0.0097752
0.12708,0.048876,0.44966,0.0097752
0.1173,0.048876,0.38123,0.0097752
0.1173,0.048876,0.36168,0.0097752
0.14663,0.048876,0.32258,0.0097752
0.21505,0.039101,0.2737,0.0097752
0.34213,0.048876,0.2346,0.01955
0.34213,0.039101,0.20528,0.01955
0.30303,0.048876,0.18573,0.029326
0.24438,0.039101,0.14663,0.029326
0.22483,0.048876,0.13685,0.029326
0.21505,0.039101,0.1173,0.029326
0.21505,0.039101,0.1173,0.029326
0.18573,0.039101,0.13685,0.039101
0.1564,0.058651,0.12708,0.048876
0.1955,0.058651,0.10753,0.048876
0.20528,0.048876,0.097752,0.048876
0.1955,0.048876,0.097752,0.039101
0.16618,0.048876,0.078201,0.048876
0.16618,0.039101,0.058651,0.039101
0.1564,0.039101,0.058651,0.039101
0.14663,0.039101,0.058651,0.048876
0.17595,0.039101,0.058651,0.039101
0.21505,0.039101,0.068426,0.039101
0.28348,0.039101,0.068426,0.039101
0.30303,0.048876,0.078201,0.029326
0.38123,0.039101,0.068426,0.039101
0.34213,0.039101,0.068426,0.029326
0.28348,0.039101,0.078201,0.039101
0.28348,0.039101,0.1173,0.029326
0.25415,0.039101,0.12708,0.029326
0.21505,0.029326,0.13685,0.029326
0.18573,0.039101,0.20528,0.039101
0.16618,0.039101,0.37146,0.029326
0.13685,0.039101,0.40078,0.039101
0.12708,0.039101,0.39101,0.039101
0.1173,0.039101,0.47898,0.039101
0.12708,0.029326,0.47898,0.039101
0.14663,0.029326,0.43988,0.039101
0.16618,0.029326,0.43988,0.039101
0.1955,0.039101,0.43011,0.029326
0.22483,0.039101,0.40078,0.029326
0.25415,0.039101,0.36168,0.029326
0.2737,0.039101,0.29326,0.048876
0.2737,0.039101,0.2346,0.039101
0.26393,0.039101,0.21505,0.029326
0.21505,0.029326,0.2346,0.029326
0.18573,0.039101,0.34213,0.01955
0.1564,0.039101,0.38123,0.01955
0.16618,0.048876,0.35191,0.01955
0.13685,0.048876,0.34213,0.01955
0.10753,0.048876,0.35191,0.01955
0.097752,0.058651,0.35191,0.01955
0.087977,0.058651,0.35191,0.01955
0.10753,0.058651,0.36168,0.0097752
0.12708,0.048876,0.32258,0.0097752
0.14663,0.048876,0.28348,0.0097752
0.20528,0.048876,0.22483,0.01955
0.26393,0.048876,0.1955,0.01955
0.43988,0.048876,0.17595,0.01955
0.56696,0.048876,0.17595,0.01955
0.53763,0.058651,0.16618,0.01955
0.49853,0.048876,0.17595,0.01955
0.46921,0.048876,0.1955,0.01955
0.40078,0.048876,0.17595,0.029326
0.34213,0.048876,0.1564,0.029326
0.30303,0.048876,0.14663,0.029326
0.29326,0.039101,0.14663,0.029326
0.25415,0.039101,0.12708,0.01955
0.22483,0.048876,0.10753,0.01955
0.18573,0.039101,0.097752,0.01955
0.17595,0.039101,0.10753,0.01955
0.14663,0.039101,0.097752,0.029326
0.12708,0.039101,0.097752,0.029326
0.10753,0.039101,0.10753,0.029326
0.097752,0.029326,0.10753,0.039101
0.087977,0.039101,0.10753,0.029326
0.12708,0.039101,0.097752,0.01955
0.13685,0.039101,0.068426,0.01955
0.16618,0.039101,0.058651,0.01955
0.14663,0.039101,0.048876,0.01955
0.13685,0.039101,0.048876,0.0097752
0.14663,0.039101,0.048876,0.0097752
0.16618,0.039101,0.048876,0.01955
0.1564,0.039101,0.068426,0.01955
0.13685,0.039101,0.078201,0.0097752
0.12708,0.039101,0.068426,0.0097752
0.1173,0.039101,0.058651,0.01955
0.1173,0.039101,0.078201,0.01955
0.13685,0.039101,0.058651,0.01955
0.13685,0.029326,0.048876,0.01955
0.13685,0.029326,0.048876,0.01955
0.1173,0.01955,0.039101,0.01955
0.10753,0.029326,0.048876,0.01955
0.1173,0.029326,0.058651,0.01955
0.10753,0.029326,0.068426,0.01955
0.1173,0.029326,0.068426,0.01955
0.12708,0.029326,0.078201,0.0097752
0.12708,0.039101,0.078201,0.0097752
0.13685,0.039101,0.078201,0.01955
0.14663,0.029326,0.078201,0.01955
0.1564,0.039101,0.087977,0.01955
0.14663,0.039101,0.087977,0.01955
0.14663,0.039101,0.078201,0.01955
0.12708,0.039101,0.068426,0.029326
0.1173,0.039101,0.068426,0.029326
0.12708,0.039101,0.068426,0.029326
0.12708,0.039101,0.1173,0.029326
0.17595,0.039101,0.17595,0.029326
0.18573,0.039101,0.21505,0.029326
0.24438,0.039101,0.1955,0.01955
0.42033,0.039101,0.17595,0.01955
0.56696,0.039101,0.16618,0.0097752
0.49853,0.048876,0.17595,0.0097752
0.43011,0.048876,0.18573,0.0097752
0.39101,0.048876,0.18573,0.0097752
0.35191,0.048876,0.1955,0
0.30303,0.048876,0.18573,0
0.26393,0.048876,0.1564,0
0.22483,0.048876,0.13685,0
0.20528,0.039101,0.1173,0
0.18573,0.029326,0.10753,0
0.1564,0.048876,0.10753,0.0097752
0.12708,0.039101,0.097752,0.0097752
0.10753,0.029326,0.097752,0.0097752
0.10753,0.029326,0.087977,0
0.087977,0.039101,0.078201,0
0.087977,0.048876,0.078201,0
0.078201,0.039101,0.068426,0
0.068426,0.039101,0.058651,0.0097752
0.078201,0.048876,0.048876,0.0097752
0.068426,0.068426,0.048876,0.0097752
0.058651,0.068426,0.048876,0.0097752
0.068426,0.068426,0.048876,0.0097752
0.068426,0.068426,0.068426,0.0097752
0.058651,0.068426,0.068426,0.0097752
0.068426,0.087977,0.087977,0.0097752
0.058651,0.097752,0.078201,0
0.048876,0.087977,0.078201,0
0.058651,0.078201,0.078201,0
0.078201,0.087977,0.068426,0.01955
0.097752,0.068426,0.097752,0.01955
0.10753,0.068426,0.13685,0.01955
0.097752,0.058651,0.12708,0.01955
0.078201,0.058651,0.16618,0.01955
0.087977,0.048876,0.22483,0.01955
0.087977,0.048876,0.44966,0.01955
0.097752,0.058651,0.60606,0.01955
0.087977,0.058651,0.58651,0.01955
0.097752,0.058651,0.48876,0.01955
0.10753,0.068426,0.40078,0.01955
0.10753,0.058651,0.36168,0.01955
0.10753,0.068426,0.43011,0.01955
0.10753,0.068426,0.38123,0.01955
0.12708,0.058651,0.31281,0.01955
0.1173,0.058651,0.29326,0.01955
0.12708,0.058651,0.33236,0.029326
0.13685,0.048876,0.32258,0.01955
0.14663,0.048876,0.29326,0.029326
0.14663,0.048876,0.25415,0.029326
0.17595,0.048876,0.25415,0.01955
0.25415,0.048876,0.25415,0.029326
0.48876,0.039101,0.26393,0.01955
0.86999,0.039101,0.69404,0.01955
0.81134,0.039101,0.77224,0.029326
0.69404,0.039101,0.94819,0.029326
0.60606,0.039101,0.92864,0.029326
0.52786,0.039101,0.80156,0.029326
0.48876,0.039101,0.71359,0.039101
0.42033,0.029326,0.62561,0.048876
0.37146,0.039101,0.50831,0.039101
0.32258,0.039101,0.41056,0.048876
0.26393,0.039101,0.32258,0.048876
0.21505,0.039101,0.29326,0.039101
0.17595,0.039101,0.24438,0.039101
0.1564,0.039101,0.1955,0.039101
0.1564,0.039101,0.17595,0.039101
0.1955,0.048876,0.2346,0.039101
0.20528,0.048876,0.21505,0.039101
0.21505,0.048876,0.1955,0.039101
0.26393,0.039101,0.22483,0.039101
0.34213,0.039101,0.17595,0.039101
0.32258,0.048876,0.1564,0.039101
0.25415,0.039101,0.13685,0.039101
0.22483,0.039101,0.1173,0.048876
0.22483,0.039101,0.1173,0.048876
0.20528,0.039101,0.1173,0.048876
0.1955,0.039101,0.12708,0.048876
0.18573,0.039101,0.12708,0.078201
0.1955,0.029326,0.097752,0.10753
0.20528,0.039101,0.078201,0.097752
0.22483,0.039101,0.078201,0.078201
0.25415,0.039101,0.068426,0.068426
0.2737,0.039101,0.068426,0.058651
0.29326,0.039101,0.058651,0.048876
0.29326,0.039101,0.048876,0.048876
0.30303,0.039101,0.12708,0.039101
0.29326,0.039101,0.24438,0.029326
0.28348,0.039101,0.26393,0.01955
0.24438,0.039101,0.21505,0.01955
0.21505,0.039101,0.18573,0.01955
0.20528,0.029326,0.1564,0.01955
0.16618,0.029326,0.1564,0.01955
0.16618,0.029326,0.14663,0.01955
0.17595,0.029326,0.17595,0.0097752
0.18573,0.029326,0.17595,0.0097752
0.16618,0.029326,0.1955,0.0097752
0.14663,0.029326,0.1955,0.0097752
0.14663,0.039101,0.17595,0.0097752
0.16618,0.039101,0.14663,0.0097752
0.1955,0.039101,0.13685,0.0097752
0.26393,0.039101,0.1173,0.0097752
0.39101,0.039101,0.12708,0.0097752
0.58651,0.029326,0.1173,0.0097752
0.50831,0.039101,0.13685,0
0.41056,0.039101,0.1564,0
0.34213,0.039101,0.14663,0.0097752
0.29326,0.029326,0.1173,0.0097752
0.24438,0.029326,0.10753,0.01955
0.20528,0.029326,0.12708,0.039101
0.16618,0.039101,0.17595,0.039101
0.1564,0.039101,0.28348,0.048876
0.16618,0.039101,0.43011,0.039101
0.1564,0.039101,0.39101,0.039101
0.14663,0.039101,0.52786,0.029326
0.13685,0.039101,0.64516,0.029326
0.13685,0.039101,0.63539,0.029326
0.1173,0.039101,0.52786,0.029326
0.097752,0.039101,0.44966,0.01955
0.087977,0.039101,0.42033,0.01955
0.068426,0.039101,0.43988,0.01955
0.068426,0.039101,0.43988,0.01955
0.068426,0.039101,0.38123,0.01955
0.078201,0.039101,0.30303,0.01955
0.10753,0.039101,0.25415,0.01955
0.14663,0.039101,0.21505,0.0097752
0.17595,0.039101,0.17595,0.0097752
0.1564,0.048876,0.14663,0.0097752
0.14663,0.039101,0.13685,0.0097752
0.1564,0.039101,0.1564,0
0.13685,0.039101,0.16618,0
0.10753,0.039101,0.13685,0
0.097752,0.039101,0.1173,0
0.087977,0.039101,0.087977,0
0.087977,0.039101,0.087977,0
0.078201,0.039101,0.068426,0
0.1173,0.039101,0.058651,0
0.1173,0.039101,0.048876,0
0.10753,0.029326,0.048876,0
0.087977,0.029326,0.039101,0
0.078201,0.029326,0.039101,0
0.078201,0.029326,0.078201,0
0.10753,0.029326,0.10753,0.0097752
0.13685,0.029326,0.10753,0.0097752
0.14663,0.029326,0.097752,0.0097752
0.1564,0.029326,0.1173,0.0097752
0.1564,0.029326,0.14663,0.0097752
0.14663,0.01955,0.12708,0.0097752
0.14663,0.029326,0.10753,0.0097752
0.14663,0.029326,0.097752,0.0097752
0.14663,0.029326,0.078201,0.0097752
0.1173,0.029326,0.068426,0
0.13685,0.029326,0.058651,0
0.1564,0.039101,0.058651,0
0.24438,0.039101,0.048876,0
0.24438,0.039101,0.048876,0
0.2346,0.039101,0.048876,0
0.20528,0.048876,0.048876,0
0.1955,0.048876,0.039101,0
0.16618,0.048876,0.039101,0
0.13685,0.039101,0.048876,0
0.1173,0.048876,0.078201,0
0.10753,0.048876,0.078201,0
0.12708,0.048876,0.087977,0
0.14663,0.039101,0.1173,0
0.13685,0.039101,0.1173,0
0.1173,0.039101,0.12708,0
0.097752,0.029326,0.14663,0
0.087977,0.039101,0.17595,0
0.087977,0.039101,0.16618,0
0.078201,0.048876,0.14663,0
0.078201,0.048876,0.1173,0.0097752
0.068426,0.048876,0.1173,0.0097752
0.058651,0.048876,0.10753,0.0097752
0.058651,0.039101,0.087977,0
0.058651,0.039101,0.087977,0
0.048876,0.048876,0.087977,0
0.048876,0.039101,0.078201,0
0.048876,0.039101,0.078201,0
0.058651,0.048876,0.13685,0
0.068426,0.048876,0.28348,0
0.068426,0.048876,0.41056,0
0.058651,0.048876,0.37146,0
0.068426,0.048876,0.31281,0
0.058651,0.048876,0.26393,0
0.078201,0.058651,0.2346,0
0.068426,0.058651,0.20528,0
0.068426,0.048876,0.1955,0
0.058651,0.048876,0.20528,0
0.058651,0.048876,0.17595,0
0.058651,0.048876,0.17595,0
0.058651,0.048876,0.16618,0
0.078201,0.058651,0.1564,0
0.097752,0.048876,0.16618,0
0.10753,0.048876,0.1564,0
0.1173,0.048876,0.1564,0
0.097752,0.039101,0.16618,0
0.087977,0.048876,0.1564,0
0.078201,0.048876,0.14663,0
0.078201,0.048876,0.13685,0
0.097752,0.058651,0.14663,0
0.12708,0.058651,0.1955,0
0.14663,0.058651,0.1955,0
0.16618,0.048876,0.21505,0
0.18573,0.048876,0.1955,0
0.21505,0.048876,0.18573,0.0097752
0.30303,0.048876,0.16618,0
0.53763,0.048876,0.1955,0
0.62561,0.039101,0.20528,0
0.55718,0.039101,0.24438,0
0.49853,0.039101,0.25415,0.0097752
0.44966,0.039101,0.22483,0.0097752
0.36168,0.039101,0.21505,0.0097752
0.30303,0.039101,0.24438,0.01955
0.25415,0.029326,0.2737,0.01955
0.20528,0.039101,0.24438,0.0097752
0.17595,0.029326,0.20528,0.0097752
0.1564,0.039101,0.17595,0.0097752
0.13685,0.039101,0.14663,0.0097752
0.12708,0.039101,0.20528,0.0097752
0.12708,0.039101,0.41056,0.0097752
0.10753,0.039101,0.52786,0.0097752
0.1173,0.039101,0.48876,0.0097752
0.097752,0.039101,0.60606,0.01955
0.087977,0.039101,0.87977,0.01955
0.087977,0.048876,0.80156,0.01955
0.078201,0.039101,1.1535,0.01955
0.097752,0.039101,1.2219,0.01955
0.097752,0.029326,1.0264,0.01955
0.097752,0.029326,0.85044,0.01955
0.097752,0.029326,0.73314,0.029326
0.10753,0.029326,0.60606,0.029326
0.18573,0.029326,0.51808,0.029326
0.2346,0.029326,0.45943,0.029326
0.20528,0.029326,0.37146,0.029326
0.18573,0.029326,0.31281,0.01955
0.17595,0.029326,0.25415,0.029326
0.17595,0.029326,0.21505,0.01955
0.1564,0.029326,0.17595,0.01955
0.12708,0.029326,0.1564,0.029326
0.12708,0.029326,0.14663,0.029326
0.1173,0.029326,0.12708,0.029326
0.087977,0.029326,0.10753,0.029326
0.087977,0.029326,0.087977,0.029326
0.087977,0.029326,0.078201,0.029326
0.10753,0.029326,0.078201,0.01955
0.13685,0.039101,0.068426,0.029326
0.16618,0.039101,0.058651,0.01955
0.18573,0.039101,0.058651,0.01955
0.21505,0.039101,0.078201,0.029326
0.2346,0.039101,0.087977,0.029326
0.25415,0.039101,0.087977,0.029326
0.2737,0.039101,0.068426,0.029326
0.32258,0.039101,0.058651,0.01955
0.38123,0.039101,0.048876,0.01955
0.38123,0.039101,0.048876,0.01955
0.36168,0.039101,0.048876,0.01955
0.30303,0.039101,0.048876,0.01955
0.63539,0.039101,0.078201,0.01955
0.68426,0.039101,0.12708,0.01955
0.56696,0.039101,0.17595,0.0097752
0.46921,0.039101,0.30303,0.0097752
0.39101,0.039101,0.43011,0.01955
0.35191,0.039101,0.44966,0.0097752
0.31281,0.039101,0.41056,0
0.2737,0.039101,0.41056,0
0.2346,0.039101,0.38123,0.0097752
0.1955,0.039101,0.37146,0.0097752
0.17595,0.039101,0.34213,0
0.16618,0.039101,0.28348,0
0.1564,0.039101,0.24438,0.0097752
0.17595,0.039101,0.22483,0
0.14663,0.039101,0.21505,0
0.12708,0.039101,0.17595,0
0.097752,0.039101,0.1564,0
0.097752,0.039101,0.14663,0
0.1173,0.039101,0.12708,0
0.10753,0.039101,0.1173,0
0.097752,0.029326,0.14663,0.0097752
0.087977,0.039101,0.24438,0.0097752
0.087977,0.048876,0.61584,0.0097752
0.078201,0.039101,1.0753,0.0097752
0.087977,0.039101,1.2414,0.0097752
0.087977,0.039101,1.261,0.01955
0.068426,0.039101,1.2219,0.0097752
0.058651,0.029326,0.98729,0.0097752
0.048876,0.039101,0.86022,0.0097752
0.039101,0.039101,0.83089,0.0097752
0.029326,0.039101,0.80156,0.01955
0.039101,0.039101,0.75269,0.0097752
0.039101,0.048876,0.69404,0.0097752
0.039101,0.039101,0.58651,0.0097752
0.039101,0.048876,0.48876,0.0097752
0.029326,0.048876,0.39101,0
0.029326,0.058651,0.33236,0
0.039101,0.048876,0.29326,0
0.029326,0.048876,0.25415,0
0.029326,0.058651,0.22483,0.0097752
0.039101,0.048876,0.20528,0.0097752
0.039101,0.048876,0.16618,0
0.039101,0.048876,0.14663,0
0.058651,0.058651,0.13685,0
0.068426,0.048876,0.1173,0
0.068426,0.048876,0.10753,0
0.058651,0.048876,0.097752,0
0.068426,0.048876,0.097752,0
0.097752,0.058651,0.087977,0
0.097752,0.058651,0.097752,0
0.087977,0.048876,0.087977,0
0.068426,0.058651,0.078201,0
0.078201,0.058651,0.068426,0
0.1173,0.048876,0.068426,0.0097752
0.1564,0.048876,0.068426,0.0097752
0.20528,0.058651,0.058651,0.0097752
0.26393,0.058651,0.058651,0.0097752
0.34213,0.048876,0.068426,0.0097752
0.46921,0.048876,0.068426,0.0097752
0.43011,0.048876,0.068426,0.0097752
0.40078,0.048876,0.068426,0.0097752
0.37146,0.048876,0.058651,0.0097752
0.30303,0.058651,0.058651,0.0097752
0.25415,0.058651,0.068426,0
0.20528,0.048876,0.058651,0.0097752
0.18573,0.068426,0.068426,0
0.17595,0.068426,0.058651,0.0097752
0.14663,0.078201,0.068426,0
0.12708,0.087977,0.078201,0
0.097752,0.087977,0.097752,0
0.087977,0.087977,0.1173,0
0.078201,0.087977,0.10753,0
0.068426,0.087977,0.1173,0
0.058651,0.087977,0.1173,0
0.048876,0.087977,0.097752,0
0.058651,0.097752,0.087977,0
0.048876,0.087977,0.097752,0
0.058651,0.087977,0.097752,0
0.058651,0.078201,0.10753,0
0.048876,0.078201,0.22483,0
0.048876,0.078201,0.34213,0
0.048876,0.068426,0.30303,0
0.039101,0.058651,0.32258,0
0.039101,0.058651,0.38123,0
0.039101,0.048876,0.32258,0
0.029326,0.058651,0.29326,0
0.039101,0.048876,0.24438,0
0.039101,0.048876,0.21505,0
0.039101,0.048876,0.16618,0
0.048876,0.058651,0.16618,0
0.068426,0.068426,0.13685,0
0.068426,0.058651,0.1173,0
0.097752,0.058651,0.10753,0
0.1173,0.048876,0.097752,0
0.10753,0.058651,0.097752,0
0.1173,0.068426,0.087977,0
0.10753,0.068426,0.078201,0
0.097752,0.068426,0.087977,0
0.097752,0.058651,0.087977,0
0.087977,0.058651,0.10753,0
0.068426,0.058651,0.10753,0
0.068426,0.048876,0.097752,0
0.068426,0.058651,0.097752,0
0.068426,0.058651,0.087977,0
0.068426,0.048876,0.097752,0
0.068426,0.048876,0.10753,0
0.068426,0.048876,0.1173,0
0.097752,0.048876,0.1173,0
0.097752,0.039101,0.10753,0
0.097752,0.039101,0.097752,0
0.097752,0.039101,0.10753,0
0.10753,0.039101,0.18573,0
0.13685,0.039101,0.26393,0.0097752
0.14663,0.039101,0.34213,0
0.13685,0.048876,0.30303,0
0.14663,0.039101,0.26393,0
0.13685,0.039101,0.33236,0.0097752
0.14663,0.039101,0.34213,0
0.14663,0.039101,0.28348,0
0.16618,0.039101,0.29326,0
0.14663,0.029326,0.2737,0
0.12708,0.029326,0.2346,0
0.12708,0.029326,0.1955,0.0097752
0.1955,0.029326,0.34213,0.0097752
0.24438,0.029326,0.71359,0.0097752
0.26393,0.029326,0.75269,0.0097752
0.22483,0.029326,0.68426,0.0097752
0.1955,0.029326,0.69404,0.0097752
0.1955,0.039101,0.67449,0.0097752
0.18573,0.039101,0.64516,0.0097752
0.1955,0.029326,0.55718,0.0097752
0.20528,0.029326,0.54741,0.0097752
0.20528,0.029326,0.58651,0.0097752
0.21505,0.029326,0.51808,0.0097752
0.2346,0.029326,0.44966,0.0097752
0.24438,0.029326,0.35191,0.01955
0.24438,0.029326,0.28348,0.01955
0.24438,0.029326,0.22483,0.01955
0.26393,0.01955,0.18573,0.01955
0.31281,0.029326,0.16618,0.029326
0.28348,0.029326,0.14663,0.029326
0.2346,0.029326,0.1173,0.029326
0.18573,0.029326,0.097752,0.039101
0.1564,0.029326,0.10753,0.029326
0.12708,0.029326,0.097752,0.029326
0.12708,0.029326,0.087977,0.029326
0.12708,0.029326,0.087977,0.029326
0.12708,0.029326,0.078201,0.029326
0.16618,0.039101,0.078201,0.039101
0.21505,0.029326,0.078201,0.039101
0.25415,0.029326,0.068426,0.048876
0.28348,0.039101,0.078201,0.039101
0.30303,0.039101,0.087977,0.058651
0.33236,0.029326,0.097752,0.058651
0.34213,0.029326,0.10753,0.068426
0.35191,0.029326,0.097752,0.078201
0.36168,0.029326,0.097752,0.068426
0.32258,0.029326,0.087977,0.068426
0.28348,0.039101,0.068426,0.068426
0.24438,0.029326,0.058651,0.058651
0.21505,0.029326,0.058651,0.068426
0.20528,0.029326,0.058651,0.068426
0.30303,0.029326,0.048876,0.068426
0.32258,0.029326,0.048876,0.097752
0.2737,0.029326,0.058651,0.1173
0.24438,0.029326,0.048876,0.097752
0.2346,0.029326,0.058651,0.087977
0.22483,0.029326,0.087977,0.078201
0.22483,0.029326,0.097752,0.087977
0.21505,0.029326,0.1173,0.078201
0.17595,0.029326,0.1173,0.068426
0.16618,0.029326,0.1173,0.068426
0.14663,0.029326,0.14663,0.058651
0.12708,0.029326,0.1564,0.068426
0.10753,0.029326,0.13685,0.058651
0.087977,0.029326,0.13685,0.058651
0.078201,0.029326,0.13685,0.058651
0.068426,0.029326,0.12708,0.048876
0.058651,0.029326,0.10753,0.058651
0.048876,0.029326,0.087977,0.048876
0.048876,0.029326,0.078201,0.058651
0.048876,0.029326,0.068426,0.048876
0.048876,0.029326,0.058651,0.039101
0.039101,0.029326,0.058651,0.029326
0.039101,0.029326,0.058651,0.039101
0.039101,0.029326,0.048876,0.039101
0.039101,0.029326,0.048876,0.039101
0.029326,0.029326,0.048876,0.029326
0.01955,0.029326,0.097752,0.029326
0.01955,0.029326,0.17595,0.048876
0.029326,0.029326,0.26393,0.048876
0.01955,0.029326,0.25415,0.048876
0.029326,0.029326,0.2346,0.039101
0.068426,0.029326,0.21505,0.039101
0.068426,0.029326,0.22483,0.039101
0.078201,0.029326,0.21505,0.058651
0.087977,0.029326,0.18573,0.078201
0.078201,0.029326,0.17595,0.078201
0.078201,0.039101,0.16618,0.078201
0.078201,0.029326,0.17595,0.058651
0.087977,0.029326,0.17595,0.058651
0.078201,0.029326,0.16618,0.048876
0.087977,0.029326,0.1564,0.039101
0.087977,0.029326,0.13685,0.039101
0.078201,0.029326,0.12708,0.029326
0.078201,0.029326,0.10753,0.01955
0.078201,0.029326,0.097752,0.01955
0.068426,0.029326,0.087977,0.01955
0.068426,0.039101,0.078201,0.01955
0.068426,0.029326,0.078201,0.01955
0.10753,0.029326,0.068426,0.01955
0.17595,0.029326,0.058651,0.01955
0.22483,0.039101,0.048876,0.01955
0.20528,0.039101,0.048876,0.029326
0.18573,0.039101,0.048876,0.01955
0.16618,0.039101,0.048876,0.029326
0.16618,0.039101,0.048876,0.01955
0.17595,0.039101,0.048876,0.01955
