0.058651,0.058651,0.56696,0.10753
1.0655,1.0264,0.72336,0.66471
0.84066,0.81134,1.2805,0.91887
0.66471,0.64516,1.261,1.0362
0.53763,0.51808,1.3392,1.0753
0.42033,0.42033,1.261,1.0068
0.33236,0.34213,1.2414,0.83089
0.2737,0.2737,1.1144,0.69404
0.22483,0.24438,0.99707,0.59629
0.1955,0.22483,0.96774,0.52786
0.14663,0.21505,0.89932,0.45943
0.1173,0.18573,0.75269,0.40078
0.097752,0.16618,0.65494,0.32258
0.078201,0.14663,0.56696,0.28348
0.068426,0.12708,0.51808,0.22483
0.058651,0.1173,0.46921,0.18573
0.048876,0.1173,0.43011,0.16618
0.039101,0.10753,0.38123,0.14663
0.029326,0.10753,0.33236,0.12708
0.039101,0.097752,0.28348,0.10753
0.039101,0.087977,0.25415,0.087977
0.039101,0.087977,0.2737,0.087977
0.048876,0.087977,0.25415,0.087977
0.058651,0.097752,0.2346,0.078201
0.068426,0.087977,0.22483,0.058651
0.087977,0.078201,0.20528,0.058651
0.097752,0.078201,0.21505,0.048876
0.087977,0.068426,0.1955,0.048876
0.097752,0.068426,0.20528,0.058651
0.13685,0.058651,0.17595,0.058651
0.1564,0.058651,0.1564,0.078201
0.1564,0.068426,0.1955,0.068426
0.1564,0.078201,0.21505,0.078201
0.13685,0.097752,0.21505,0.087977
0.12708,0.087977,0.1955,0.097752
0.097752,0.078201,0.20528,0.16618
0.078201,0.078201,0.1955,0.1955
0.068426,0.068426,0.18573,0.1955
0.068426,0.068426,0.17595,0.20528
0.058651,0.068426,0.17595,0.18573
0.058651,0.068426,0.17595,0.16618
0.048876,0.078201,0.18573,0.14663
0.048876,0.078201,0.16618,0.16618
0.039101,0.078201,0.1955,0.18573
0.039101,0.068426,0.18573,0.1955
0.039101,0.078201,0.1955,0.1955
0.029326,0.087977,0.17595,0.1955
0.029326,0.087977,0.1564,0.18573
0.039101,0.087977,0.1564,0.1955
0.048876,0.078201,0.14663,0.17595
0.058651,0.078201,0.14663,0.1564
0.058651,0.087977,0.1173,0.17595
0.048876,0.087977,0.1173,0.22483
0.039101,0.078201,0.12708,0.2346
0.039101,0.068426,0.12708,0.34213
0.058651,0.087977,0.13685,0.43011
0.058651,0.078201,0.14663,0.45943
0.048876,0.068426,0.1564,0.40078
0.058651,0.078201,0.1564,0.39101
0.078201,0.078201,0.16618,0.39101
0.068426,0.068426,0.1564,0.33236
0.058651,0.078201,0.18573,0.30303
0.068426,0.068426,0.22483,0.30303
0.068426,0.068426,0.24438,0.29326
0.068426,0.068426,0.22483,0.26393
0.078201,0.068426,0.30303,0.21505
0.068426,0.068426,0.29326,0.18573
0.078201,0.068426,0.28348,0.16618
0.078201,0.087977,0.31281,0.16618
0.10753,0.078201,0.28348,0.17595
0.097752,0.087977,0.32258,0.18573
0.1173,0.087977,0.34213,0.1955
0.12708,0.10753,0.29326,0.2346
0.14663,0.10753,0.24438,0.31281
0.18573,0.1173,0.2346,0.48876
0.20528,0.1173,0.2346,0.86999
0.22483,0.1173,0.22483,1.4174
0.2346,0.12708,0.21505,1.9062
0.2737,0.14663,0.20528,2.0235
0.25415,0.16618,0.18573,1.9453
0.2346,0.17595,0.1955,1.8768
0.26393,0.17595,0.17595,1.6618
0.29326,0.17595,0.16618,1.7595
0.29326,0.18573,0.16618,1.6227
0.25415,0.16618,0.14663,1.4565
0.2346,0.1955,0.14663,1.2805
0.2737,0.1955,0.14663,1.0557
0.29326,0.18573,0.14663,0.88954
0.42033,0.21505,0.14663,0.78201
0.36168,0.24438,0.12708,0.64516
0.33236,0.2737,0.1173,0.56696
0.37146,0.26393,0.1173,0.48876
0.37146,0.26393,0.10753,0.41056
0.35191,0.26393,0.097752,0.35191
0.32258,0.28348,0.10753,0.34213
0.28348,0.29326,0.10753,0.35191
0.28348,0.45943,0.097752,0.37146
0.2737,0.74291,0.12708,0.40078
0.25415,0.75269,0.12708,0.38123
0.22483,0.79179,0.13685,0.34213
0.2346,0.76246,0.1564,0.32258
0.32258,0.69404,0.22483,0.2737
0.35191,0.59629,0.24438,0.25415
0.32258,0.57674,0.22483,0.21505
0.28348,0.56696,0.2346,0.21505
0.2346,0.53763,0.22483,0.25415
0.2346,0.47898,0.22483,0.29326
0.31281,0.43988,0.20528,0.30303
0.30303,0.40078,0.20528,0.31281
0.2737,0.36168,0.22483,0.39101
0.29326,0.35191,0.24438,0.41056
0.31281,0.35191,0.22483,0.40078
0.36168,0.44966,0.1955,0.34213
0.38123,0.76246,0.18573,0.29326
0.40078,1.0362,0.1955,0.24438
0.35191,1.1046,0.2346,0.20528
0.52786,0.96774,0.24438,0.25415
0.63539,0.98729,0.24438,0.26393
0.53763,1.0753,0.2346,0.2346
0.42033,1.0068,0.1955,0.2346
0.38123,0.86999,0.17595,0.2346
0.36168,0.88954,0.17595,0.20528
0.31281,0.86022,0.20528,0.1955
0.26393,0.79179,0.25415,0.18573
0.22483,0.69404,0.2737,0.21505
0.20528,0.58651,0.25415,0.2346
0.1955,0.49853,0.2346,0.2737
0.20528,0.43011,0.20528,0.30303
0.2346,0.43011,0.17595,0.32258
0.22483,0.39101,0.14663,0.28348
0.18573,0.37146,0.13685,0.24438
0.17595,0.41056,0.12708,0.22483
0.1564,0.38123,0.10753,0.20528
0.12708,0.31281,0.097752,0.17595
0.10753,0.28348,0.10753,0.17595
0.10753,0.24438,0.12708,0.14663
0.1173,0.21505,0.1173,0.12708
0.1173,0.18573,0.1173,0.1173
0.10753,0.18573,0.097752,0.10753
0.087977,0.22483,0.10753,0.097752
0.1173,0.26393,0.10753,0.10753
0.1173,0.2346,0.10753,0.10753
0.097752,0.2737,0.097752,0.087977
0.097752,0.34213,0.087977,0.097752
0.078201,0.39101,0.087977,0.2346
0.058651,0.37146,0.078201,0.33236
0.068426,0.31281,0.078201,0.35191
0.068426,0.26393,0.078201,0.30303
0.048876,0.29326,0.068426,0.28348
0.068426,0.32258,0.068426,0.35191
0.058651,0.33236,0.078201,0.30303
0.058651,0.29326,0.087977,0.28348
0.048876,0.2737,0.087977,0.26393
0.068426,0.29326,0.087977,0.24438
0.058651,0.29326,0.078201,0.22483
0.048876,0.26393,0.087977,0.2737
0.048876,0.30303,0.078201,0.22483
0.048876,0.2737,0.068426,0.21505
0.048876,0.25415,0.078201,0.35191
0.048876,0.24438,0.087977,0.35191
0.058651,0.26393,0.087977,0.30303
0.078201,0.25415,0.087977,0.2737
0.068426,0.22483,0.078201,0.24438
0.058651,0.1955,0.078201,0.21505
0.058651,0.16618,0.068426,0.18573
0.068426,0.1564,0.078201,0.21505
0.087977,0.13685,0.078201,0.24438
0.087977,0.1173,0.087977,0.2737
0.078201,0.1173,0.078201,0.29326
0.058651,0.13685,0.078201,0.31281
0.058651,0.12708,0.087977,0.39101
0.048876,0.10753,0.087977,0.43011
0.039101,0.10753,0.078201,0.38123
0.039101,0.13685,0.087977,0.32258
0.039101,0.12708,0.097752,0.31281
0.039101,0.1173,0.10753,0.35191
0.048876,0.097752,0.1173,0.42033
0.048876,0.13685,0.12708,0.43988
0.039101,0.16618,0.12708,0.45943
0.048876,0.18573,0.12708,0.45943
0.068426,0.17595,0.1173,0.39101
0.068426,0.1564,0.12708,0.34213
0.058651,0.14663,0.14663,0.28348
0.048876,0.1564,0.1564,0.25415
0.039101,0.14663,0.17595,0.2346
0.039101,0.14663,0.17595,0.20528
0.039101,0.1955,0.16618,0.17595
0.048876,0.1955,0.17595,0.14663
0.068426,0.1955,0.17595,0.1564
0.058651,0.16618,0.20528,0.14663
0.048876,0.1564,0.20528,0.13685
0.048876,0.13685,0.20528,0.12708
0.058651,0.12708,0.22483,0.10753
0.058651,0.10753,0.26393,0.097752
0.058651,0.087977,0.26393,0.1173
0.068426,0.087977,0.24438,0.1173
0.068426,0.087977,0.2346,0.13685
0.068426,0.078201,0.21505,0.14663
0.087977,0.078201,0.1955,0.13685
0.097752,0.087977,0.1955,0.13685
0.13685,0.087977,0.20528,0.12708
0.17595,0.078201,0.20528,0.10753
0.17595,0.078201,0.18573,0.097752
0.1564,0.078201,0.20528,0.097752
0.13685,0.068426,0.26393,0.10753
0.1173,0.058651,0.34213,0.12708
0.13685,0.048876,0.35191,0.14663
0.16618,0.058651,0.40078,0.13685
0.17595,0.048876,0.44966,0.13685
0.14663,0.048876,0.51808,0.13685
0.14663,0.039101,0.52786,0.13685
0.1564,0.039101,0.52786,0.14663
0.16618,0.048876,0.57674,0.13685
0.1564,0.039101,0.87977,0.14663
0.1564,0.039101,1.0655,0.14663
0.1955,0.048876,1.0557,0.18573
0.2346,0.058651,0.96774,0.20528
0.22483,0.048876,1.0948,0.18573
0.18573,0.058651,1.0068,0.17595
0.1564,0.058651,0.92864,0.1564
0.1564,0.058651,0.80156,0.12708
0.16618,0.058651,0.70381,0.1173
0.1564,0.048876,0.60606,0.12708
0.1173,0.058651,0.55718,0.14663
0.12708,0.058651,0.51808,0.1564
0.1564,0.068426,0.47898,0.16618
0.1564,0.068426,0.40078,0.16618
0.13685,0.068426,0.37146,0.16618
0.1173,0.068426,0.34213,0.1564
0.087977,0.058651,0.29326,0.1564
0.087977,0.058651,0.25415,0.13685
0.087977,0.058651,0.22483,0.1173
0.087977,0.048876,0.1955,0.10753
0.078201,0.048876,0.1955,0.097752
0.078201,0.048876,0.18573,0.097752
0.068426,0.048876,0.1955,0.078201
0.078201,0.039101,0.20528,0.078201
0.078201,0.048876,0.21505,0.068426
0.058651,0.048876,0.22483,0.087977
0.048876,0.048876,0.1955,0.10753
0.039101,0.048876,0.2346,0.1173
0.048876,0.058651,0.29326,0.13685
0.078201,0.048876,0.38123,0.12708
0.078201,0.048876,0.32258,0.12708
0.078201,0.048876,0.37146,0.12708
0.068426,0.039101,0.43988,0.10753
0.058651,0.048876,0.38123,0.087977
0.058651,0.039101,0.38123,0.097752
0.068426,0.039101,0.35191,0.097752
0.068426,0.039101,0.38123,0.10753
0.068426,0.048876,0.32258,0.13685
0.068426,0.048876,0.29326,0.17595
0.068426,0.058651,0.25415,0.1955
0.087977,0.058651,0.22483,0.1955
0.087977,0.058651,0.20528,0.17595
0.087977,0.058651,0.17595,0.14663
0.078201,0.058651,0.22483,0.13685
0.078201,0.048876,0.2737,0.10753
0.078201,0.048876,0.26393,0.097752
0.078201,0.039101,0.2346,0.087977
0.097752,0.039101,0.20528,0.087977
0.097752,0.039101,0.1955,0.087977
0.097752,0.039101,0.17595,0.10753
0.097752,0.029326,0.1564,0.10753
0.1173,0.039101,0.1564,0.097752
0.1173,0.048876,0.1564,0.10753
0.12708,0.048876,0.14663,0.097752
0.14663,0.058651,0.16618,0.10753
0.14663,0.048876,0.16618,0.097752
0.1564,0.048876,0.1564,0.097752
0.18573,0.078201,0.13685,0.10753
0.18573,0.097752,0.1173,0.097752
0.18573,0.097752,0.10753,0.087977
0.1955,0.1173,0.097752,0.078201
0.21505,0.12708,0.087977,0.068426
0.21505,0.1564,0.078201,0.078201
0.2346,0.1564,0.068426,0.12708
0.21505,0.14663,0.087977,0.24438
0.20528,0.12708,0.087977,0.32258
0.21505,0.10753,0.087977,0.35191
0.37146,0.097752,0.087977,0.29326
0.44966,0.10753,0.087977,0.26393
0.49853,0.13685,0.097752,0.21505
0.43011,0.14663,0.087977,0.24438
0.38123,0.1564,0.087977,0.2346
0.36168,0.14663,0.078201,0.21505
0.42033,0.13685,0.087977,0.1955
0.39101,0.10753,0.097752,0.17595
0.35191,0.10753,0.087977,0.1564
0.28348,0.10753,0.087977,0.16618
0.25415,0.12708,0.078201,0.1564
0.22483,0.12708,0.078201,0.1564
0.2737,0.13685,0.087977,0.14663
0.33236,0.13685,0.087977,0.13685
0.42033,0.12708,0.078201,0.14663
0.63539,0.13685,0.068426,0.13685
0.69404,0.13685,0.058651,0.1173
0.80156,0.12708,0.068426,0.1173
0.82111,0.13685,0.058651,0.1173
0.83089,0.13685,0.068426,0.13685
0.84066,0.13685,0.058651,0.13685
0.74291,0.13685,0.058651,0.14663
0.71359,0.12708,0.068426,0.17595
0.72336,0.12708,0.058651,0.25415
0.60606,0.14663,0.058651,0.28348
0.49853,0.14663,0.058651,0.30303
0.41056,0.1564,0.068426,0.28348
0.35191,0.16618,0.068426,0.26393
0.28348,0.16618,0.058651,0.2346
0.2737,0.17595,0.068426,0.20528
0.2737,0.16618,0.068426,0.20528
0.28348,0.1564,0.068426,0.20528
0.26393,0.18573,0.078201,0.22483
0.21505,0.18573,0.087977,0.21505
0.20528,0.20528,0.1173,0.21505
0.26393,0.25415,0.1955,0.20528
0.37146,0.32258,0.1955,0.20528
0.54741,0.30303,0.2346,0.21505
0.58651,0.34213,0.25415,0.1955
0.54741,0.33236,0.29326,0.1955
0.51808,0.34213,0.31281,0.22483
0.50831,0.36168,0.31281,0.22483
0.48876,0.36168,0.30303,0.20528
0.41056,0.32258,0.2737,0.17595
0.35191,0.31281,0.22483,0.24438
0.37146,0.31281,0.18573,0.30303
0.32258,0.29326,0.1564,0.32258
0.31281,0.26393,0.13685,0.28348
0.31281,0.2346,0.12708,0.35191
0.34213,0.20528,0.12708,0.31281
0.35191,0.18573,0.12708,0.28348
0.35191,0.1955,0.1173,0.2737
0.33236,0.22483,0.12708,0.30303
0.29326,0.2737,0.13685,0.29326
0.2737,0.36168,0.12708,0.24438
0.24438,0.40078,0.13685,0.22483
0.24438,0.45943,0.14663,0.20528
0.26393,0.80156,0.13685,0.20528
0.29326,0.87977,0.1173,0.21505
0.31281,0.97752,0.13685,0.22483
0.30303,0.93842,0.13685,0.24438
0.24438,0.87977,0.12708,0.2346
0.21505,0.86022,0.14663,0.22483
0.18573,0.81134,0.13685,0.30303
0.1564,0.72336,0.13685,0.30303
0.13685,0.87977,0.12708,0.33236
0.12708,0.83089,0.13685,0.41056
0.1173,0.87977,0.12708,0.40078
0.097752,0.85044,0.1173,0.34213
0.087977,0.70381,0.12708,0.33236
0.087977,0.58651,0.12708,0.32258
0.097752,0.50831,0.10753,0.29326
0.097752,0.54741,0.10753,0.28348
0.087977,0.57674,0.13685,0.26393
0.078201,0.55718,0.12708,0.24438
0.068426,0.50831,0.097752,0.24438
0.048876,0.50831,0.097752,0.2346
0.048876,0.47898,0.10753,0.22483
0.039101,0.40078,0.10753,0.21505
0.029326,0.36168,0.097752,0.2346
0.039101,0.30303,0.087977,0.22483
0.048876,0.28348,0.078201,0.1955
0.048876,0.28348,0.078201,0.16618
0.048876,0.29326,0.078201,0.14663
0.048876,0.26393,0.087977,0.12708
0.048876,0.22483,0.097752,0.13685
0.039101,0.20528,0.087977,0.13685
0.039101,0.20528,0.078201,0.12708
0.029326,0.18573,0.078201,0.14663
0.029326,0.1564,0.087977,0.14663
0.01955,0.1564,0.078201,0.13685
0.01955,0.14663,0.078201,0.16618
0.01955,0.13685,0.097752,0.17595
0.01955,0.16618,0.087977,0.25415
0.01955,0.25415,0.078201,0.34213
0.01955,0.2346,0.10753,0.36168
0.029326,0.30303,0.097752,0.30303
0.029326,0.35191,0.087977,0.25415
0.029326,0.35191,0.087977,0.22483
0.039101,0.31281,0.087977,0.1955
0.068426,0.34213,0.087977,0.17595
0.058651,0.38123,0.078201,0.16618
0.068426,0.39101,0.078201,0.14663
0.097752,0.36168,0.078201,0.12708
0.087977,0.29326,0.078201,0.12708
0.078201,0.24438,0.068426,0.12708
0.078201,0.21505,0.078201,0.10753
0.078201,0.24438,0.087977,0.087977
0.068426,0.25415,0.087977,0.078201
0.078201,0.22483,0.087977,0.068426
0.1173,0.20528,0.10753,0.078201
0.16618,0.20528,0.10753,0.087977
0.17595,0.22483,0.097752,0.097752
0.18573,0.24438,0.097752,0.10753
0.1564,0.22483,0.097752,0.097752
0.13685,0.2346,0.10753,0.078201
0.1173,0.22483,0.1173,0.068426
0.097752,0.20528,0.1173,0.058651
0.078201,0.17595,0.1173,0.058651
0.078201,0.1955,0.13685,0.058651
0.078201,0.18573,0.14663,0.068426
0.068426,0.16618,0.16618,0.078201
0.048876,0.1564,0.1564,0.078201
0.048876,0.13685,0.16618,0.068426
0.058651,0.1564,0.18573,0.058651
0.058651,0.1955,0.18573,0.068426
0.048876,0.17595,0.18573,0.068426
0.048876,0.16618,0.22483,0.068426
0.039101,0.1564,0.20528,0.068426
0.039101,0.14663,0.21505,0.078201
0.039101,0.21505,0.1955,0.068426
0.039101,0.22483,0.24438,0.068426
0.029326,0.20528,0.26393,0.058651
0.029326,0.18573,0.25415,0.058651
0.039101,0.16618,0.22483,0.058651
0.039101,0.13685,0.20528,0.058651
0.029326,0.12708,0.17595,0.058651
0.039101,0.1173,0.24438,0.048876
0.039101,0.10753,0.2737,0.048876
0.039101,0.087977,0.28348,0.048876
0.048876,0.078201,0.31281,0.058651
0.058651,0.078201,0.32258,0.048876
0.068426,0.068426,0.31281,0.058651
0.058651,0.068426,0.30303,0.068426
0.058651,0.068426,0.29326,0.1173
0.048876,0.068426,0.34213,0.14663
0.039101,0.068426,0.35191,0.1564
0.048876,0.087977,0.34213,0.13685
0.048876,0.078201,0.37146,0.12708
0.058651,0.078201,0.39101,0.12708
0.058651,0.087977,0.38123,0.14663
0.068426,0.087977,0.39101,0.12708
0.068426,0.078201,0.36168,0.10753
0.078201,0.097752,0.39101,0.087977
0.078201,0.097752,0.42033,0.087977
0.068426,0.1173,0.39101,0.068426
0.068426,0.1173,0.36168,0.068426
0.068426,0.12708,0.37146,0.097752
0.058651,0.12708,0.33236,0.10753
0.078201,0.12708,0.41056,0.1173
0.087977,0.13685,0.47898,0.12708
0.087977,0.1564,0.50831,0.12708
0.078201,0.14663,0.52786,0.097752
0.087977,0.14663,0.72336,0.087977
0.087977,0.14663,0.95797,0.078201
0.10753,0.1564,0.91887,0.068426
0.10753,0.1564,0.83089,0.068426
0.10753,0.1564,0.76246,0.048876
0.1173,0.13685,0.65494,0.048876
0.1173,0.12708,0.58651,0.058651
0.13685,0.12708,0.51808,0.087977
0.12708,0.1173,0.44966,0.12708
0.1564,0.10753,0.40078,0.1955
0.14663,0.1173,0.38123,0.31281
0.16618,0.1173,0.32258,0.35191
0.18573,0.10753,0.32258,0.36168
0.1564,0.097752,0.35191,0.33236
0.16618,0.10753,0.32258,0.29326
0.1955,0.10753,0.2737,0.25415
0.22483,0.087977,0.26393,0.20528
0.26393,0.087977,0.2346,0.17595
0.29326,0.078201,0.2346,0.14663
0.31281,0.087977,0.22483,0.13685
0.33236,0.097752,0.21505,0.1173
0.37146,0.097752,0.2346,0.1173
0.47898,0.097752,0.25415,0.13685
0.48876,0.10753,0.2737,0.13685
0.46921,0.1173,0.26393,0.14663
0.46921,0.1173,0.24438,0.1564
0.40078,0.12708,0.22483,0.13685
0.37146,0.12708,0.2346,0.1564
0.31281,0.12708,0.24438,0.17595
0.28348,0.1173,0.20528,0.25415
0.2737,0.13685,0.17595,0.24438
0.28348,0.12708,0.17595,0.20528
0.25415,0.1173,0.17595,0.16618
0.25415,0.1173,0.17595,0.14663
0.35191,0.10753,0.16618,0.14663
0.37146,0.10753,0.17595,0.1564
0.43011,0.097752,0.17595,0.16618
0.43988,0.087977,0.16618,0.17595
0.44966,0.087977,0.13685,0.16618
0.48876,0.087977,0.1173,0.16618
0.55718,0.087977,0.1173,0.1955
0.52786,0.087977,0.12708,0.16618
0.48876,0.087977,0.12708,0.16618
0.59629,0.087977,0.1173,0.17595
0.49853,0.087977,0.1173,0.1564
0.43011,0.087977,0.13685,0.1564
0.38123,0.087977,0.12708,0.1564
0.35191,0.087977,0.10753,0.1564
0.32258,0.078201,0.097752,0.18573
0.31281,0.078201,0.097752,0.1955
0.2737,0.068426,0.087977,0.21505
0.25415,0.068426,0.087977,0.20528
0.25415,0.068426,0.087977,0.1955
0.2346,0.078201,0.078201,0.2737
0.22483,0.068426,0.078201,0.31281
0.2346,0.058651,0.078201,0.31281
0.20528,0.058651,0.078201,0.30303
0.16618,0.068426,0.097752,0.28348
0.1564,0.058651,0.10753,0.26393
0.12708,0.068426,0.097752,0.25415
0.12708,0.078201,0.087977,0.2346
0.1173,0.068426,0.097752,0.2346
0.10753,0.078201,0.087977,0.21505
0.1173,0.087977,0.078201,0.2346
0.12708,0.087977,0.068426,0.24438
0.13685,0.097752,0.078201,0.26393
0.20528,0.10753,0.078201,0.32258
0.21505,0.10753,0.068426,0.29326
0.24438,0.097752,0.058651,0.26393
0.22483,0.097752,0.068426,0.25415
0.21505,0.10753,0.078201,0.2737
0.1955,0.10753,0.068426,0.25415
0.18573,0.13685,0.068426,0.33236
0.2346,0.1564,0.068426,0.37146
0.25415,0.1564,0.078201,0.36168
0.2737,0.14663,0.068426,0.34213
0.30303,0.17595,0.078201,0.39101
0.36168,0.16618,0.068426,0.41056
0.38123,0.16618,0.078201,0.45943
0.33236,0.16618,0.068426,0.48876
0.29326,0.17595,0.078201,0.45943
0.28348,0.14663,0.058651,0.43011
0.28348,0.1564,0.058651,0.46921
0.30303,0.14663,0.068426,0.45943
0.35191,0.1564,0.068426,0.45943
0.37146,0.1564,0.068426,0.49853
0.34213,0.1564,0.068426,0.43988
0.32258,0.17595,0.068426,0.39101
0.29326,0.21505,0.068426,0.43011
0.2346,0.21505,0.078201,0.51808
0.20528,0.20528,0.078201,0.44966
0.16618,0.21505,0.078201,0.37146
0.1564,0.24438,0.078201,0.33236
0.16618,0.2346,0.068426,0.29326
0.18573,0.21505,0.068426,0.32258
0.18573,0.20528,0.068426,0.34213
0.16618,0.2346,0.078201,0.28348
0.14663,0.22483,0.087977,0.24438
0.12708,0.1955,0.087977,0.20528
0.10753,0.17595,0.078201,0.17595
0.097752,0.2346,0.078201,0.16618
0.10753,0.41056,0.078201,0.14663
0.13685,0.50831,0.087977,0.12708
0.14663,0.46921,0.087977,0.14663
0.1564,0.40078,0.097752,0.17595
0.14663,0.35191,0.10753,0.21505
0.13685,0.34213,0.13685,0.25415
0.10753,0.33236,0.1564,0.25415
0.097752,0.30303,0.17595,0.25415
0.097752,0.29326,0.18573,0.2737
0.097752,0.31281,0.18573,0.28348
0.087977,0.34213,0.18573,0.25415
0.097752,0.31281,0.1564,0.21505
0.097752,0.28348,0.12708,0.17595
0.087977,0.25415,0.13685,0.1564
0.068426,0.2737,0.13685,0.14663
0.068426,0.28348,0.13685,0.13685
0.078201,0.28348,0.1564,0.10753
0.078201,0.37146,0.1564,0.097752
0.078201,0.37146,0.13685,0.097752
0.087977,0.43988,0.13685,0.13685
0.097752,0.64516,0.12708,0.16618
0.1173,0.67449,0.12708,0.18573
0.1173,0.61584,0.1564,0.17595
0.1173,0.55718,0.20528,0.17595
0.10753,0.45943,0.2346,0.14663
0.078201,0.40078,0.24438,0.12708
0.068426,0.39101,0.22483,0.12708
0.058651,0.42033,0.1955,0.12708
0.078201,0.43011,0.16618,0.10753
0.087977,0.41056,0.16618,0.097752
0.087977,0.42033,0.13685,0.097752
0.078201,0.46921,0.10753,0.087977
0.058651,0.45943,0.10753,0.097752
0.068426,0.43988,0.097752,0.1173
0.068426,0.45943,0.087977,0.13685
0.078201,0.45943,0.068426,0.16618
0.068426,0.40078,0.078201,0.1564
0.097752,0.36168,0.078201,0.12708
0.1173,0.30303,0.087977,0.10753
0.13685,0.24438,0.087977,0.10753
0.1564,0.20528,0.078201,0.1173
0.16618,0.20528,0.078201,0.12708
0.1955,0.18573,0.087977,0.1564
0.1955,0.14663,0.087977,0.16618
0.17595,0.14663,0.087977,0.16618
0.14663,0.13685,0.068426,0.16618
0.17595,0.10753,0.078201,0.17595
0.17595,0.12708,0.068426,0.17595
0.14663,0.13685,0.058651,0.17595
0.14663,0.14663,0.068426,0.1564
0.1955,0.17595,0.058651,0.1564
0.17595,0.1564,0.058651,0.14663
0.21505,0.13685,0.068426,0.12708
0.2737,0.13685,0.068426,0.13685
0.26393,0.13685,0.078201,0.16618
0.22483,0.16618,0.087977,0.16618
0.18573,0.18573,0.087977,0.17595
0.1564,0.17595,0.087977,0.17595
0.14663,0.20528,0.087977,0.1564
0.12708,0.21505,0.078201,0.14663
0.10753,0.21505,0.068426,0.13685
0.097752,0.1955,0.078201,0.1173
0.097752,0.2346,0.078201,0.097752
0.087977,0.32258,0.078201,0.087977
0.078201,0.32258,0.087977,0.087977
0.068426,0.2737,0.078201,0.078201
0.068426,0.2737,0.097752,0.097752
0.058651,0.28348,0.10753,0.097752
0.039101,0.29326,0.097752,0.087977
0.039101,0.26393,0.097752,0.087977
0.029326,0.22483,0.10753,0.068426
0.029326,0.1955,0.1173,0.068426
0.048876,0.16618,0.10753,0.068426
0.078201,0.1564,0.1173,0.068426
0.078201,0.14663,0.1173,0.058651
0.068426,0.13685,0.12708,0.058651
0.078201,0.13685,0.14663,0.039101
0.087977,0.12708,0.1564,0.048876
0.078201,0.12708,0.1564,0.058651
0.087977,0.1173,0.17595,0.068426
0.087977,0.10753,0.18573,0.078201
0.078201,0.12708,0.17595,0.068426
0.087977,0.14663,0.16618,0.087977
0.097752,0.13685,0.18573,0.078201
0.087977,0.1173,0.16618,0.078201
0.078201,0.1173,0.17595,0.068426
0.078201,0.1173,0.18573,0.068426
0.087977,0.1173,0.18573,0.058651
0.087977,0.17595,0.18573,0.058651
0.13685,0.17595,0.17595,0.048876
0.14663,0.1564,0.18573,0.048876
0.14663,0.14663,0.17595,0.048876
0.13685,0.13685,0.18573,0.039101
0.10753,0.1564,0.20528,0.039101
0.087977,0.1564,0.20528,0.058651
0.1173,0.1564,0.21505,0.058651
0.13685,0.13685,0.18573,0.058651
0.1173,0.12708,0.18573,0.058651
0.12708,0.10753,0.18573,0.068426
0.12708,0.087977,0.17595,0.078201
0.1173,0.10753,0.18573,0.087977
0.10753,0.1173,0.1955,0.097752
0.13685,0.097752,0.20528,0.087977
0.14663,0.1173,0.22483,0.087977
0.18573,0.13685,0.2346,0.078201
0.17595,0.14663,0.22483,0.068426
0.22483,0.14663,0.22483,0.058651
0.20528,0.13685,0.22483,0.058651
0.21505,0.1173,0.25415,0.14663
0.28348,0.1173,0.26393,0.14663
0.29326,0.097752,0.26393,0.17595
0.28348,0.10753,0.39101,0.2346
0.24438,0.097752,0.60606,0.26393
0.22483,0.087977,0.86999,0.25415
0.1955,0.087977,0.97752,0.24438
0.20528,0.10753,1.0166,0.22483
0.25415,0.10753,1.7595,0.20528
0.24438,0.097752,1.4956,0.17595
0.28348,0.087977,1.4272,0.1564
0.2737,0.1173,1.3196,0.12708
0.26393,0.097752,1.1437,0.10753
0.24438,0.097752,1.0068,0.087977
0.33236,0.097752,0.93842,0.097752
0.38123,0.087977,0.85044,0.1173
0.42033,0.087977,0.77224,0.13685
0.40078,0.087977,0.65494,0.12708
0.35191,0.078201,0.56696,0.12708
0.34213,0.097752,0.48876,0.1173
0.37146,0.087977,0.42033,0.14663
0.49853,0.078201,0.37146,0.21505
0.59629,0.068426,0.34213,0.2346
0.58651,0.078201,0.30303,0.2346
0.70381,0.078201,0.26393,0.26393
0.86999,0.068426,0.22483,0.32258
0.84066,0.058651,0.1955,0.28348
0.93842,0.058651,0.17595,0.24438
1.1828,0.058651,0.16618,0.2346
1.1828,0.048876,0.1564,0.25415
1.1046,0.058651,0.14663,0.25415
1.0264,0.048876,0.18573,0.24438
1.0655,0.048876,0.22483,0.24438
1.1339,0.048876,0.24438,0.25415
0.95797,0.048876,0.31281,0.22483
0.77224,0.039101,0.29326,0.21505
0.64516,0.039101,0.26393,0.21505
0.54741,0.039101,0.22483,0.1955
0.45943,0.039101,0.1955,0.21505
0.37146,0.048876,0.20528,0.22483
0.36168,0.048876,0.21505,0.21505
0.36168,0.058651,0.20528,0.21505
0.29326,0.058651,0.1955,0.2346
0.24438,0.058651,0.21505,0.2737
0.20528,0.068426,0.2346,0.29326
0.18573,0.058651,0.2346,0.35191
0.16618,0.048876,0.21505,0.36168
0.14663,0.048876,0.1955,0.40078
0.12708,0.048876,0.21505,0.38123
0.10753,0.048876,0.18573,0.34213
0.10753,0.058651,0.18573,0.31281
0.10753,0.078201,0.18573,0.29326
0.17595,0.068426,0.1564,0.28348
0.1955,0.058651,0.14663,0.29326
0.1955,0.058651,0.13685,0.33236
0.17595,0.058651,0.13685,0.32258
0.14663,0.048876,0.13685,0.36168
0.1564,0.048876,0.1173,0.34213
0.14663,0.048876,0.1173,0.30303
0.1564,0.039101,0.10753,0.29326
0.14663,0.039101,0.097752,0.32258
0.12708,0.039101,0.087977,0.32258
0.10753,0.039101,0.078201,0.33236
0.087977,0.029326,0.068426,0.32258
0.087977,0.029326,0.068426,0.30303
0.078201,0.029326,0.058651,0.29326
0.068426,0.029326,0.058651,0.30303
0.12708,0.029326,0.058651,0.30303
0.18573,0.029326,0.068426,0.39101
0.21505,0.029326,0.068426,0.45943
0.37146,0.029326,0.058651,0.43988
0.43988,0.029326,0.068426,0.46921
0.59629,0.039101,0.068426,0.45943
0.66471,0.068426,0.068426,0.43988
0.56696,0.078201,0.087977,0.40078
0.49853,0.087977,0.097752,0.36168
0.40078,0.087977,0.087977,0.37146
0.33236,0.087977,0.078201,0.34213
0.2737,0.078201,0.078201,0.30303
0.2346,0.078201,0.087977,0.31281
0.1955,0.087977,0.087977,0.31281
0.16618,0.087977,0.078201,0.29326
0.13685,0.087977,0.078201,0.29326
0.12708,0.078201,0.078201,0.24438
0.10753,0.078201,0.078201,0.20528
0.1173,0.068426,0.078201,0.1955
0.1173,0.068426,0.068426,0.20528
0.097752,0.058651,0.068426,0.18573
0.097752,0.058651,0.068426,0.17595
0.097752,0.048876,0.068426,0.16618
0.097752,0.058651,0.078201,0.14663
0.087977,0.058651,0.078201,0.12708
0.078201,0.058651,0.068426,0.12708
0.058651,0.068426,0.078201,0.12708
0.048876,0.058651,0.078201,0.10753
0.048876,0.068426,0.078201,0.087977
0.039101,0.068426,0.087977,0.087977
0.058651,0.068426,0.097752,0.097752
0.078201,0.068426,0.1173,0.12708
0.087977,0.068426,0.10753,0.14663
0.078201,0.058651,0.097752,0.17595
0.087977,0.068426,0.097752,0.24438
0.068426,0.058651,0.087977,0.26393
0.068426,0.048876,0.12708,0.22483
0.078201,0.058651,0.14663,0.21505
0.078201,0.058651,0.14663,0.21505
0.078201,0.068426,0.14663,0.22483
0.078201,0.068426,0.16618,0.2346
0.058651,0.068426,0.14663,0.2346
0.048876,0.068426,0.1564,0.22483
0.048876,0.068426,0.20528,0.1955
0.039101,0.078201,0.24438,0.16618
0.048876,0.078201,0.22483,0.16618
0.058651,0.078201,0.21505,0.13685
0.078201,0.078201,0.22483,0.12708
0.087977,0.087977,0.21505,0.097752
0.078201,0.087977,0.22483,0.087977
0.058651,0.087977,0.21505,0.087977
0.058651,0.097752,0.18573,0.097752
0.068426,0.10753,0.17595,0.10753
0.068426,0.1173,0.14663,0.13685
0.068426,0.13685,0.14663,0.10753
0.058651,0.14663,0.13685,0.097752
0.048876,0.13685,0.14663,0.078201
0.039101,0.1564,0.14663,0.087977
0.039101,0.20528,0.1564,0.087977
0.048876,0.25415,0.1564,0.087977
0.068426,0.25415,0.1564,0.087977
0.068426,0.22483,0.1564,0.078201
0.058651,0.32258,0.16618,0.087977
0.068426,0.35191,0.13685,0.097752
0.058651,0.33236,0.1173,0.10753
0.058651,0.41056,0.10753,0.10753
0.078201,0.47898,0.12708,0.097752
0.078201,0.53763,0.1173,0.087977
0.087977,0.58651,0.10753,0.097752
0.087977,0.57674,0.1173,0.10753
0.087977,0.51808,0.1173,0.10753
0.078201,0.53763,0.10753,0.097752
0.078201,0.66471,0.1173,0.087977
0.087977,0.71359,0.13685,0.078201
0.078201,0.68426,0.1564,0.068426
0.078201,0.59629,0.17595,0.058651
0.078201,0.63539,0.18573,0.058651
0.078201,0.65494,0.18573,0.048876
0.048876,0.84066,0.14663,0.048876
0.048876,0.96774,0.14663,0.039101
0.048876,0.98729,0.13685,0.029326
0.048876,0.97752,0.13685,0.029326
0.048876,0.96774,0.14663,0.029326
0.039101,1.349,0.1564,0.039101
0.068426,1.8768,0.13685,0.048876
0.097752,1.7595,0.12708,0.048876
0.1173,1.4956,0.1173,0.048876
0.097752,1.349,0.097752,0.048876
0.078201,1.2805,0.097752,0.048876
0.097752,1.1046,0.097752,0.039101
0.13685,0.89932,0.097752,0.048876
0.13685,0.76246,0.1173,0.048876
0.1173,0.74291,0.1173,0.048876
0.10753,0.80156,0.10753,0.058651
0.1173,0.76246,0.097752,0.048876
0.087977,0.64516,0.078201,0.039101
0.078201,0.54741,0.078201,0.039101
0.078201,0.47898,0.087977,0.048876
0.087977,0.41056,0.078201,0.058651
0.087977,0.41056,0.078201,0.087977
0.078201,0.43988,0.087977,0.097752
0.087977,0.48876,0.097752,0.097752
0.1173,0.44966,0.097752,0.097752
0.13685,0.39101,0.087977,0.078201
0.12708,0.43011,0.097752,0.087977
0.12708,0.41056,0.087977,0.097752
0.097752,0.35191,0.1173,0.087977
0.087977,0.29326,0.1173,0.087977
0.068426,0.25415,0.1173,0.068426
0.058651,0.2346,0.12708,0.068426
0.048876,0.24438,0.1173,0.078201
0.048876,0.26393,0.12708,0.078201
0.039101,0.2737,0.1173,0.087977
0.039101,0.26393,0.10753,0.10753
0.048876,0.22483,0.10753,0.13685
0.048876,0.1955,0.10753,0.16618
0.058651,0.22483,0.10753,0.21505
0.048876,0.22483,0.097752,0.2737
0.048876,0.22483,0.087977,0.34213
0.039101,0.2346,0.087977,0.39101
0.048876,0.21505,0.087977,0.42033
0.048876,0.18573,0.087977,0.42033
0.048876,0.16618,0.097752,0.41056
0.068426,0.17595,0.10753,0.37146
0.068426,0.16618,0.097752,0.32258
0.068426,0.13685,0.087977,0.28348
0.087977,0.12708,0.097752,0.24438
0.087977,0.12708,0.10753,0.1955
0.087977,0.12708,0.10753,0.18573
0.078201,0.12708,0.097752,0.21505
0.087977,0.12708,0.087977,0.24438
0.087977,0.1564,0.078201,0.28348
0.068426,0.13685,0.078201,0.29326
0.068426,0.12708,0.087977,0.29326
0.068426,0.1173,0.087977,0.31281
0.078201,0.10753,0.087977,0.37146
0.078201,0.10753,0.087977,0.43011
0.087977,0.097752,0.10753,0.43988
0.097752,0.097752,0.10753,0.38123
0.097752,0.10753,0.10753,0.36168
0.087977,0.12708,0.1173,0.33236
0.1173,0.13685,0.1173,0.34213
0.1173,0.13685,0.1173,0.35191
0.10753,0.1173,0.12708,0.41056
0.10753,0.10753,0.13685,0.38123
0.12708,0.097752,0.13685,0.36168
0.18573,0.087977,0.13685,0.34213
0.22483,0.078201,0.14663,0.31281
0.20528,0.078201,0.14663,0.28348
0.18573,0.068426,0.18573,0.2737
0.16618,0.068426,0.22483,0.24438
0.16618,0.068426,0.2346,0.26393
0.14663,0.068426,0.21505,0.26393
0.1564,0.068426,0.21505,0.29326
0.1564,0.068426,0.1955,0.37146
0.18573,0.087977,0.20528,0.37146
0.2346,0.1173,0.18573,0.33236
0.31281,0.1173,0.17595,0.33236
0.36168,0.1173,0.17595,0.29326
0.30303,0.10753,0.17595,0.30303
0.2737,0.097752,0.17595,0.31281
0.2346,0.097752,0.1955,0.33236
0.22483,0.087977,0.18573,0.32258
0.21505,0.078201,0.22483,0.29326
0.21505,0.078201,0.22483,0.32258
0.25415,0.068426,0.24438,0.32258
0.32258,0.068426,0.2737,0.30303
0.33236,0.068426,0.28348,0.30303
0.28348,0.058651,0.2737,0.30303
0.2346,0.058651,0.32258,0.33236
0.18573,0.048876,0.42033,0.31281
0.16618,0.058651,0.77224,0.34213
0.1564,0.058651,0.84066,0.37146
0.16618,0.058651,0.78201,0.32258
0.18573,0.048876,0.78201,0.32258
0.21505,0.048876,0.72336,0.31281
0.18573,0.039101,0.86999,0.2737
0.2346,0.048876,0.74291,0.24438
0.34213,0.058651,0.71359,0.25415
0.34213,0.048876,0.62561,0.2346
0.36168,0.048876,0.52786,0.20528
0.34213,0.048876,0.45943,0.18573
0.32258,0.039101,0.57674,0.21505
0.36168,0.039101,0.50831,0.1955
0.35191,0.039101,0.46921,0.18573
0.30303,0.039101,0.50831,0.18573
0.2737,0.029326,0.43011,0.20528
0.2346,0.039101,0.38123,0.24438
0.2346,0.039101,0.34213,0.35191
0.33236,0.029326,0.30303,0.35191
0.31281,0.029326,0.28348,0.31281
0.26393,0.029326,0.28348,0.29326
0.22483,0.029326,0.26393,0.37146
0.17595,0.029326,0.25415,0.36168
0.14663,0.029326,0.2346,0.49853
0.1173,0.029326,0.1955,0.43988
0.097752,0.029326,0.17595,0.45943
0.087977,0.039101,0.1955,0.46921
0.068426,0.039101,0.18573,0.44966
0.058651,0.029326,0.16618,0.43011
0.068426,0.039101,0.16618,0.39101
0.078201,0.029326,0.1955,0.33236
0.087977,0.039101,0.20528,0.29326
0.087977,0.039101,0.2346,0.28348
0.087977,0.039101,0.25415,0.22483
0.1564,0.039101,0.2346,0.20528
0.14663,0.039101,0.20528,0.20528
0.14663,0.039101,0.17595,0.18573
0.13685,0.039101,0.16618,0.18573
0.14663,0.039101,0.1564,0.20528
0.14663,0.039101,0.1564,0.21505
0.1564,0.048876,0.17595,0.21505
0.22483,0.039101,0.17595,0.1955
0.25415,0.039101,0.16618,0.17595
0.26393,0.039101,0.14663,0.16618
0.28348,0.048876,0.12708,0.13685
0.24438,0.048876,0.1173,0.1173
0.1955,0.039101,0.13685,0.1173
0.17595,0.048876,0.12708,0.097752
0.17595,0.048876,0.12708,0.097752
0.1564,0.058651,0.1173,0.087977
0.14663,0.048876,0.1173,0.087977
0.13685,0.048876,0.10753,0.078201
0.1173,0.048876,0.10753,0.1173
0.16618,0.048876,0.087977,0.10753
0.16618,0.058651,0.078201,0.10753
0.18573,0.068426,0.087977,0.10753
0.1955,0.068426,0.078201,0.1173
0.18573,0.078201,0.078201,0.10753
0.16618,0.087977,0.068426,0.097752
0.14663,0.078201,0.068426,0.087977
0.12708,0.078201,0.068426,0.087977
0.1173,0.078201,0.068426,0.078201
0.13685,0.078201,0.068426,0.068426
0.14663,0.078201,0.078201,0.058651
0.1173,0.078201,0.078201,0.058651
0.097752,0.087977,0.078201,0.048876
0.097752,0.078201,0.068426,0.048876
0.087977,0.087977,0.078201,0.068426
0.087977,0.087977,0.078201,0.058651
0.078201,0.087977,0.078201,0.048876
0.068426,0.087977,0.078201,0.048876
0.068426,0.097752,0.068426,0.048876
0.058651,0.087977,0.068426,0.068426
0.048876,0.087977,0.058651,0.087977
0.039101,0.097752,0.058651,0.078201
0.039101,0.10753,0.048876,0.068426
0.048876,0.1173,0.048876,0.058651
0.058651,0.1173,0.058651,0.058651
0.058651,0.10753,0.048876,0.048876
0.068426,0.1173,0.048876,0.048876
0.087977,0.1173,0.058651,0.048876
0.097752,0.12708,0.058651,0.039101
0.10753,0.12708,0.068426,0.048876
0.1173,0.13685,0.058651,0.048876
0.12708,0.14663,0.058651,0.048876
0.1173,0.14663,0.058651,0.048876
0.087977,0.1564,0.048876,0.058651
0.078201,0.18573,0.048876,0.048876
0.068426,0.1955,0.048876,0.039101
0.068426,0.1955,0.048876,0.048876
0.068426,0.1955,0.048876,0.058651
0.058651,0.18573,0.039101,0.048876
0.078201,0.16618,0.048876,0.048876
0.087977,0.18573,0.048876,0.058651
0.087977,0.18573,0.058651,0.097752
0.097752,0.1955,0.048876,0.10753
0.078201,0.18573,0.058651,0.1173
0.068426,0.16618,0.058651,0.10753
0.058651,0.1564,0.068426,0.097752
0.068426,0.16618,0.068426,0.078201
0.068426,0.1955,0.068426,0.078201
0.068426,0.35191,0.068426,0.058651
0.068426,0.45943,0.068426,0.058651
0.058651,0.68426,0.058651,0.058651
0.048876,0.89932,0.068426,0.048876
0.048876,0.73314,0.068426,0.048876
0.039101,0.81134,0.058651,0.039101
0.048876,0.74291,0.068426,0.039101
0.058651,0.61584,0.068426,0.039101
0.048876,0.53763,0.078201,0.039101
0.1564,0.10753,0.087977,0.097752
1.3099,1.0948,1.4565,0.88954
1.0655,1.0264,1.1828,0.69404
0.87977,0.98729,0.95797,0.55718
0.71359,0.87977,0.77224,0.44966
0.60606,0.76246,0.60606,0.35191
0.48876,0.68426,0.52786,0.28348
0.40078,0.72336,0.45943,0.22483
0.35191,1.3099,0.39101,0.18573
0.30303,1.5738,0.34213,0.14663
0.26393,1.2512,0.31281,0.12708
0.2346,0.97752,0.29326,0.10753
0.2346,1.5738,0.28348,0.087977
0.21505,2.1017,0.26393,0.087977
0.18573,2.5611,0.22483,0.068426
0.17595,2.6197,0.21505,0.058651
0.18573,2.1896,0.2346,0.058651
0.1955,1.7889,0.2346,0.048876
0.17595,1.4663,0.20528,0.039101
0.18573,1.3196,0.18573,0.039101
0.21505,1.1437,0.21505,0.048876
0.1955,0.98729,0.25415,0.048876
0.18573,0.82111,0.31281,0.039101
0.2346,0.66471,0.33236,0.039101
0.22483,0.58651,0.36168,0.029326
0.25415,0.51808,0.36168,0.029326
0.24438,0.45943,0.33236,0.029326
0.25415,0.43011,0.29326,0.029326
0.24438,0.43011,0.26393,0.029326
0.25415,0.45943,0.24438,0.048876
0.26393,0.42033,0.24438,0.058651
0.25415,0.37146,0.21505,0.068426
0.30303,0.31281,0.20528,0.058651
0.2737,0.25415,0.1955,0.068426
0.24438,0.22483,0.20528,0.058651
0.2346,0.20528,0.21505,0.039101
0.25415,0.1564,0.22483,0.039101
0.24438,0.14663,0.2346,0.029326
0.20528,0.12708,0.22483,0.029326
0.1955,0.1173,0.2346,0.01955
0.2346,0.097752,0.22483,0.029326
0.24438,0.097752,0.2346,0.039101
0.26393,0.14663,0.22483,0.029326
0.2737,0.12708,0.20528,0.029326
0.2737,0.12708,0.1955,0.029326
0.25415,0.097752,0.20528,0.029326
0.21505,0.087977,0.22483,0.048876
0.21505,0.087977,0.21505,0.068426
0.26393,0.078201,0.26393,0.087977
0.26393,0.078201,0.2737,0.097752
0.43988,0.068426,0.26393,0.097752
0.55718,0.068426,0.28348,0.078201
0.57674,0.058651,0.24438,0.068426
0.51808,0.058651,0.24438,0.058651
0.50831,0.078201,0.26393,0.078201
0.43988,0.078201,0.24438,0.10753
0.42033,0.078201,0.28348,0.097752
0.38123,0.068426,0.29326,0.078201
0.37146,0.078201,0.30303,0.068426
0.34213,0.078201,0.32258,0.048876
0.29326,0.078201,0.30303,0.048876
0.24438,0.078201,0.28348,0.048876
0.1955,0.068426,0.25415,0.048876
0.1955,0.058651,0.24438,0.068426
0.1955,0.078201,0.26393,0.087977
0.18573,0.078201,0.2737,0.087977
0.14663,0.078201,0.32258,0.078201
0.12708,0.068426,0.35191,0.078201
0.10753,0.068426,0.34213,0.087977
0.087977,0.058651,0.36168,0.097752
0.078201,0.058651,0.38123,0.10753
0.068426,0.058651,0.38123,0.13685
0.048876,0.058651,0.39101,0.1564
0.048876,0.068426,0.35191,0.1564
0.029326,0.058651,0.32258,0.18573
0.029326,0.078201,0.38123,0.1955
0.039101,0.068426,0.43988,0.17595
0.029326,0.058651,0.42033,0.16618
0.039101,0.068426,0.42033,0.1564
0.078201,0.058651,0.39101,0.16618
0.078201,0.048876,0.44966,0.16618
0.10753,0.058651,0.47898,0.17595
0.16618,0.048876,0.53763,0.1564
0.14663,0.048876,0.44966,0.13685
0.13685,0.048876,0.44966,0.13685
0.12708,0.068426,0.41056,0.13685
0.1173,0.068426,0.36168,0.13685
0.097752,0.087977,0.34213,0.13685
0.13685,0.087977,0.31281,0.14663
0.17595,0.068426,0.61584,0.20528
0.16618,0.058651,1.173,0.22483
0.16618,0.068426,1.6813,0.24438
0.1564,0.058651,1.6618,0.2346
0.13685,0.048876,1.6618,0.25415
0.10753,0.048876,1.6227,0.22483
0.078201,0.048876,1.4663,0.21505
0.068426,0.058651,1.4858,0.21505
0.068426,0.048876,1.3587,0.1955
0.048876,0.048876,1.1437,0.17595
0.039101,0.048876,1.0166,0.17595
0.048876,0.039101,0.90909,0.18573
0.048876,0.039101,0.82111,0.1564
0.048876,0.039101,0.77224,0.14663
0.068426,0.058651,0.66471,0.14663
0.10753,0.058651,0.61584,0.1564
0.1173,0.087977,0.55718,0.16618
0.12708,0.1173,0.46921,0.1564
0.10753,0.10753,0.47898,0.14663
0.10753,0.10753,0.42033,0.1564
0.097752,0.10753,0.36168,0.1564
0.1173,0.087977,0.32258,0.13685
0.13685,0.078201,0.30303,0.1564
0.17595,0.078201,0.2737,0.1564
0.20528,0.058651,0.2346,0.29326
0.21505,0.068426,0.24438,0.38123
0.21505,0.058651,0.22483,0.39101
0.18573,0.058651,0.20528,0.34213
0.1564,0.058651,0.17595,0.41056
0.1564,0.048876,0.1564,0.41056
0.1564,0.048876,0.14663,0.37146
0.16618,0.048876,0.12708,0.33236
0.1564,0.048876,0.14663,0.29326
0.13685,0.058651,0.13685,0.29326
0.1173,0.058651,0.14663,0.28348
0.097752,0.068426,0.14663,0.25415
0.097752,0.068426,0.14663,0.21505
0.097752,0.068426,0.1564,0.1955
0.097752,0.068426,0.21505,0.16618
0.087977,0.058651,0.25415,0.17595
0.068426,0.058651,0.2346,0.18573
0.068426,0.058651,0.21505,0.16618
0.078201,0.058651,0.20528,0.14663
0.078201,0.068426,0.1955,0.14663
0.078201,0.068426,0.20528,0.1564
0.097752,0.068426,0.2346,0.14663
0.097752,0.068426,0.34213,0.13685
0.087977,0.058651,0.45943,0.1173
0.068426,0.058651,0.41056,0.10753
0.058651,0.048876,0.34213,0.12708
0.048876,0.068426,0.29326,0.14663
0.058651,0.078201,0.2737,0.1564
0.068426,0.078201,0.24438,0.14663
0.078201,0.078201,0.26393,0.13685
0.087977,0.078201,0.29326,0.1173
0.078201,0.087977,0.24438,0.10753
0.068426,0.078201,0.22483,0.097752
0.058651,0.078201,0.24438,0.097752
0.058651,0.078201,0.29326,0.087977
0.048876,0.087977,0.29326,0.078201
0.068426,0.078201,0.25415,0.068426
0.068426,0.087977,0.24438,0.097752
0.058651,0.078201,0.21505,0.12708
0.058651,0.087977,0.18573,0.1173
0.048876,0.097752,0.16618,0.10753
0.048876,0.10753,0.1564,0.12708
0.058651,0.10753,0.14663,0.16618
0.058651,0.1173,0.12708,0.16618
0.048876,0.1173,0.12708,0.16618
0.048876,0.1173,0.13685,0.12708
0.048876,0.1173,0.13685,0.12708
0.048876,0.12708,0.12708,0.1173
0.048876,0.14663,0.1173,0.097752
0.048876,0.14663,0.10753,0.087977
0.039101,0.13685,0.10753,0.087977
0.039101,0.13685,0.10753,0.087977
0.029326,0.14663,0.097752,0.078201
0.039101,0.1564,0.087977,0.058651
0.029326,0.14663,0.087977,0.068426
0.029326,0.13685,0.097752,0.068426
0.029326,0.13685,0.097752,0.058651
0.029326,0.13685,0.10753,0.068426
0.039101,0.17595,0.10753,0.048876
0.039101,0.17595,0.10753,0.058651
0.039101,0.18573,0.10753,0.048876
0.058651,0.20528,0.1173,0.058651
0.068426,0.2737,0.10753,0.058651
0.087977,0.29326,0.087977,0.058651
0.1173,0.28348,0.10753,0.058651
0.14663,0.25415,0.10753,0.068426
0.1564,0.22483,0.087977,0.078201
0.14663,0.26393,0.097752,0.068426
0.1173,0.24438,0.087977,0.068426
0.10753,0.22483,0.078201,0.087977
0.097752,0.24438,0.097752,0.1173
0.1564,0.24438,0.087977,0.14663
0.1564,0.2737,0.078201,0.1564
0.18573,0.29326,0.087977,0.13685
0.16618,0.2737,0.078201,0.1173
0.14663,0.24438,0.087977,0.10753
0.12708,0.22483,0.078201,0.1173
0.13685,0.25415,0.078201,0.13685
0.1564,0.30303,0.078201,0.1564
0.17595,0.28348,0.087977,0.1564
0.17595,0.31281,0.087977,0.14663
0.14663,0.37146,0.097752,0.12708
0.12708,0.44966,0.087977,0.10753
0.1173,0.85044,0.078201,0.087977
0.097752,0.99707,0.087977,0.078201
0.097752,0.94819,0.087977,0.078201
0.1173,0.81134,0.078201,0.078201
0.13685,0.84066,0.068426,0.078201
0.12708,0.77224,0.078201,0.068426
0.1173,0.86022,0.068426,0.058651
0.1173,0.81134,0.068426,0.058651
0.1173,0.78201,0.068426,0.068426
0.10753,0.81134,0.087977,0.087977
0.097752,0.93842,0.097752,0.097752
0.097752,0.94819,0.097752,0.097752
0.078201,0.79179,0.10753,0.087977
0.068426,0.68426,0.10753,0.068426
0.058651,0.56696,0.10753,0.058651
0.068426,0.63539,0.097752,0.058651
0.058651,0.78201,0.097752,0.068426
0.058651,0.66471,0.097752,0.058651
0.039101,0.66471,0.097752,0.058651
0.048876,0.74291,0.10753,0.048876
0.048876,0.79179,0.1173,0.048876
0.039101,0.72336,0.10753,0.039101
0.048876,0.71359,0.10753,0.048876
0.048876,0.69404,0.10753,0.058651
0.039101,0.62561,0.10753,0.058651
0.029326,0.51808,0.10753,0.058651
0.039101,0.44966,0.12708,0.048876
0.058651,0.43011,0.12708,0.048876
0.058651,0.38123,0.12708,0.048876
0.068426,0.35191,0.12708,0.058651
0.068426,0.36168,0.1173,0.078201
0.068426,0.33236,0.10753,0.097752
0.087977,0.34213,0.097752,0.097752
0.068426,0.30303,0.097752,0.097752
0.068426,0.25415,0.078201,0.078201
0.058651,0.25415,0.078201,0.087977
0.068426,0.25415,0.12708,0.078201
0.068426,0.22483,0.10753,0.068426
0.078201,0.22483,0.1173,0.058651
0.078201,0.33236,0.16618,0.068426
0.097752,0.40078,0.24438,0.068426
0.097752,0.47898,0.34213,0.058651
0.14663,0.43988,0.36168,0.058651
0.16618,0.44966,0.30303,0.058651
0.16618,0.38123,0.26393,0.058651
0.16618,0.34213,0.26393,0.068426
0.17595,0.83089,0.24438,0.068426
0.14663,0.81134,0.24438,0.068426
0.1564,0.68426,0.21505,0.078201
0.17595,0.58651,0.1955,0.058651
0.17595,0.60606,0.1955,0.058651
0.18573,0.55718,0.16618,0.058651
0.17595,0.51808,0.14663,0.068426
0.18573,0.45943,0.13685,0.087977
0.17595,0.40078,0.12708,0.10753
0.1955,0.35191,0.13685,0.1173
0.18573,0.30303,0.13685,0.1173
0.18573,0.35191,0.13685,0.10753
0.1955,0.36168,0.13685,0.087977
0.20528,0.32258,0.12708,0.078201
0.2346,0.28348,0.1173,0.068426
0.2346,0.28348,0.10753,0.058651
0.20528,0.2737,0.1173,0.058651
0.18573,0.24438,0.13685,0.058651
0.18573,0.21505,0.18573,0.058651
0.1955,0.18573,0.16618,0.039101
0.20528,0.1955,0.1564,0.039101
0.1955,0.2346,0.12708,0.039101
0.26393,0.25415,0.12708,0.058651
0.2737,0.22483,0.13685,0.087977
0.29326,0.22483,0.12708,0.078201
0.24438,0.24438,0.1173,0.058651
0.28348,0.24438,0.1173,0.058651
0.41056,0.24438,0.1173,0.058651
0.49853,0.20528,0.1173,0.048876
0.50831,0.18573,0.12708,0.048876
0.49853,0.17595,0.1173,0.039101
0.41056,0.17595,0.13685,0.029326
0.38123,0.16618,0.12708,0.029326
0.34213,0.13685,0.14663,0.01955
0.29326,0.12708,0.14663,0.01955
0.30303,0.12708,0.18573,0.0097752
0.42033,0.10753,0.1955,0.0097752
0.53763,0.097752,0.20528,0.01955
0.52786,0.087977,0.22483,0.048876
0.50831,0.097752,0.20528,0.058651
0.66471,0.097752,0.24438,0.058651
0.56696,0.1173,0.26393,0.058651
0.61584,0.1173,0.25415,0.068426
0.74291,0.1173,0.28348,0.068426
0.83089,0.097752,0.34213,0.10753
0.79179,0.087977,0.32258,0.18573
0.69404,0.097752,0.31281,0.22483
0.57674,0.097752,0.34213,0.2346
0.54741,0.10753,0.37146,0.22483
0.54741,0.10753,0.36168,0.22483
0.53763,0.087977,0.33236,0.21505
0.47898,0.097752,0.29326,0.20528
0.39101,0.097752,0.2737,0.18573
0.31281,0.097752,0.29326,0.1564
0.2737,0.087977,0.28348,0.13685
0.25415,0.087977,0.28348,0.12708
0.25415,0.078201,0.29326,0.1173
0.24438,0.068426,0.33236,0.097752
0.20528,0.068426,0.31281,0.097752
0.1955,0.068426,0.28348,0.087977
0.18573,0.058651,0.29326,0.097752
0.1955,0.068426,0.31281,0.087977
0.17595,0.068426,0.29326,0.097752
0.1564,0.058651,0.26393,0.1173
0.13685,0.068426,0.2346,0.1564
0.12708,0.058651,0.24438,0.20528
0.10753,0.058651,0.24438,0.25415
0.087977,0.058651,0.22483,0.31281
0.078201,0.058651,0.21505,0.29326
0.068426,0.058651,0.1955,0.28348
0.048876,0.078201,0.1955,0.2346
0.058651,0.068426,0.21505,0.2737
0.078201,0.068426,0.2737,0.31281
0.078201,0.068426,0.33236,0.2737
0.068426,0.058651,0.36168,0.25415
0.068426,0.058651,0.41056,0.2346
0.097752,0.058651,0.52786,0.21505
0.087977,0.068426,0.74291,0.20528
0.078201,0.068426,1.0459,0.2346
0.078201,0.058651,1.3001,0.1955
0.078201,0.048876,1.1339,0.17595
0.078201,0.048876,0.97752,0.1564
0.097752,0.039101,0.91887,0.14663
0.087977,0.048876,0.79179,0.14663
0.078201,0.039101,0.73314,0.1564
0.068426,0.048876,0.66471,0.18573
0.078201,0.048876,0.59629,0.21505
0.087977,0.048876,0.51808,0.24438
0.10753,0.039101,0.44966,0.22483
0.1173,0.048876,0.41056,0.2346
0.097752,0.048876,0.39101,0.25415
0.087977,0.068426,0.39101,0.24438
0.068426,0.058651,0.35191,0.20528
0.068426,0.078201,0.33236,0.20528
0.078201,0.097752,0.35191,0.20528
0.14663,0.087977,0.34213,0.20528
0.1955,0.078201,0.34213,0.17595
0.1955,0.068426,0.34213,0.14663
0.20528,0.068426,0.34213,0.14663
0.22483,0.068426,0.33236,0.12708
0.21505,0.068426,0.33236,0.1173
0.18573,0.058651,0.28348,0.12708
0.1564,0.048876,0.24438,0.14663
0.13685,0.048876,0.21505,0.17595
0.1173,0.048876,0.21505,0.24438
0.097752,0.048876,0.1955,0.30303
0.078201,0.048876,0.16618,0.32258
0.078201,0.058651,0.1564,0.30303
0.097752,0.068426,0.14663,0.32258
0.10753,0.058651,0.13685,0.29326
0.097752,0.068426,0.1173,0.30303
0.097752,0.058651,0.10753,0.31281
0.10753,0.048876,0.12708,0.32258
0.097752,0.048876,0.14663,0.30303
0.097752,0.039101,0.1955,0.31281
0.078201,0.039101,0.21505,0.30303
0.068426,0.039101,0.34213,0.28348
0.058651,0.039101,0.38123,0.2737
0.068426,0.048876,0.35191,0.24438
0.068426,0.048876,0.40078,0.22483
0.068426,0.058651,0.45943,0.1955
0.087977,0.058651,0.49853,0.1955
0.087977,0.058651,0.42033,0.17595
0.078201,0.068426,0.37146,0.17595
0.068426,0.068426,0.36168,0.16618
0.087977,0.068426,0.32258,0.16618
0.087977,0.058651,0.28348,0.16618
0.087977,0.068426,0.2346,0.16618
0.078201,0.078201,0.1955,0.1564
0.068426,0.087977,0.16618,0.12708
0.058651,0.097752,0.1564,0.1173
0.087977,0.1173,0.17595,0.1173
0.078201,0.1173,0.21505,0.10753
0.068426,0.12708,0.20528,0.097752
0.078201,0.1173,0.17595,0.087977
0.087977,0.13685,0.18573,0.078201
0.10753,0.14663,0.1564,0.078201
0.1564,0.1564,0.14663,0.068426
0.16618,0.14663,0.14663,0.058651
0.17595,0.13685,0.14663,0.048876
0.1564,0.12708,0.14663,0.058651
0.1173,0.1173,0.1564,0.048876
0.10753,0.10753,0.14663,0.048876
0.097752,0.10753,0.13685,0.039101
0.097752,0.1173,0.1173,0.039101
0.087977,0.13685,0.10753,0.039101
0.10753,0.13685,0.087977,0.029326
0.097752,0.13685,0.087977,0.029326
0.097752,0.13685,0.078201,0.01955
0.1173,0.13685,0.087977,0.029326
0.13685,0.14663,0.078201,0.029326
0.14663,0.16618,0.078201,0.048876
0.17595,0.16618,0.078201,0.058651
0.16618,0.17595,0.078201,0.048876
0.18573,0.16618,0.068426,0.058651
0.17595,0.16618,0.068426,0.058651
0.13685,0.16618,0.058651,0.078201
0.12708,0.17595,0.058651,0.10753
0.1173,0.17595,0.058651,0.097752
0.1173,0.18573,0.058651,0.087977
0.097752,0.1564,0.058651,0.078201
0.087977,0.16618,0.048876,0.068426
0.078201,0.16618,0.068426,0.068426
0.068426,0.16618,0.068426,0.058651
0.078201,0.17595,0.058651,0.048876
0.068426,0.2737,0.058651,0.048876
0.068426,0.41056,0.058651,0.048876
0.068426,0.43011,0.048876,0.068426
0.058651,0.81134,0.048876,0.068426
0.097752,0.75269,0.058651,0.078201
0.10753,0.77224,0.058651,0.068426
0.097752,0.81134,0.048876,0.058651
0.097752,0.81134,0.048876,0.058651
0.12708,0.82111,0.048876,0.058651
0.13685,0.72336,0.058651,0.048876
0.1564,0.62561,0.058651,0.058651
0.1564,0.59629,0.058651,0.087977
0.13685,0.58651,0.058651,0.097752
0.12708,0.60606,0.058651,0.097752
0.10753,0.53763,0.068426,0.078201
0.087977,0.54741,0.068426,0.068426
0.10753,1.3392,0.058651,0.068426
0.1173,1.5152,0.058651,0.068426
0.14663,1.5249,0.058651,0.058651
0.16618,1.6911,0.058651,0.058651
0.1955,1.4663,0.058651,0.048876
0.22483,1.2512,0.058651,0.039101
0.22483,1.1144,0.058651,0.039101
0.17595,0.94819,0.058651,0.039101
0.14663,1.0166,0.058651,0.039101
0.13685,0.94819,0.068426,0.039101
0.17595,1.2121,0.058651,0.029326
0.16618,1.2805,0.058651,0.029326
0.13685,1.1437,0.058651,0.01955
0.1173,1.0362,0.058651,0.029326
0.10753,1.0948,0.058651,0.029326
0.10753,1.0948,0.048876,0.029326
0.097752,0.95797,0.048876,0.029326
0.10753,0.79179,0.048876,0.029326
0.10753,0.71359,0.048876,0.029326
0.087977,0.68426,0.058651,0.039101
0.097752,0.57674,0.048876,0.029326
0.10753,0.51808,0.039101,0.039101
0.10753,0.53763,0.039101,0.048876
0.1173,0.56696,0.048876,0.058651
0.097752,0.57674,0.048876,0.058651
0.087977,0.50831,0.048876,0.058651
0.078201,0.53763,0.039101,0.058651
0.068426,0.55718,0.039101,0.048876
0.068426,0.54741,0.039101,0.048876
0.078201,0.46921,0.039101,0.048876
0.10753,0.43011,0.029326,0.058651
0.10753,0.50831,0.039101,0.058651
0.10753,0.48876,0.029326,0.048876
0.10753,0.51808,0.039101,0.058651
0.097752,0.55718,0.048876,0.048876
0.1173,0.47898,0.048876,0.048876
0.1173,0.51808,0.058651,0.048876
0.13685,0.86999,0.068426,0.068426
0.14663,1.349,0.078201,0.087977
0.14663,1.2219,0.087977,0.10753
0.14663,1.1828,0.087977,0.10753
0.14663,1.0362,0.078201,0.097752
0.1564,0.86022,0.068426,0.097752
0.14663,0.82111,0.058651,0.087977
0.14663,0.72336,0.058651,0.068426
0.14663,0.66471,0.058651,0.078201
0.16618,0.57674,0.058651,0.068426
0.18573,0.50831,0.058651,0.087977
0.18573,0.43011,0.068426,0.078201
0.21505,0.38123,0.10753,0.068426
0.2346,0.37146,0.14663,0.048876
0.2346,0.33236,0.1955,0.058651
0.24438,0.28348,0.25415,0.058651
0.22483,0.24438,0.22483,0.048876
0.20528,0.21505,0.18573,0.048876
0.17595,0.16618,0.16618,0.048876
0.16618,0.14663,0.14663,0.048876
0.17595,0.17595,0.13685,0.048876
0.17595,0.1564,0.13685,0.048876
0.18573,0.13685,0.12708,0.039101
0.1955,0.1173,0.12708,0.039101
0.22483,0.14663,0.1173,0.058651
0.2346,0.13685,0.10753,0.058651
0.2346,0.1564,0.10753,0.058651
0.33236,0.16618,0.097752,0.048876
0.30303,0.1564,0.12708,0.058651
0.34213,0.14663,0.1173,0.058651
0.36168,0.16618,0.1173,0.097752
0.33236,0.20528,0.1564,0.097752
0.30303,0.1955,0.1564,0.087977
0.35191,0.17595,0.14663,0.087977
0.38123,0.1564,0.13685,0.078201
0.36168,0.13685,0.13685,0.078201
0.32258,0.12708,0.12708,0.078201
0.26393,0.12708,0.12708,0.087977
0.29326,0.1173,0.12708,0.078201
0.28348,0.10753,0.12708,0.078201
0.28348,0.097752,0.12708,0.078201
0.25415,0.10753,0.1173,0.078201
0.2737,0.087977,0.1173,0.078201
0.37146,0.087977,0.1173,0.078201
0.38123,0.087977,0.14663,0.078201
0.35191,0.087977,0.1564,0.068426
0.32258,0.097752,0.13685,0.068426
0.36168,0.097752,0.13685,0.078201
0.43011,0.097752,0.1564,0.097752
0.47898,0.097752,0.1564,0.087977
0.40078,0.097752,0.14663,0.097752
0.40078,0.087977,0.16618,0.10753
0.41056,0.097752,0.14663,0.10753
0.39101,0.10753,0.14663,0.087977
0.39101,0.10753,0.14663,0.078201
0.31281,0.1173,0.1564,0.068426
0.26393,0.10753,0.17595,0.068426
0.2346,0.087977,0.17595,0.078201
0.20528,0.097752,0.17595,0.068426
0.18573,0.097752,0.20528,0.058651
0.16618,0.097752,0.17595,0.048876
0.14663,0.097752,0.16618,0.039101
0.12708,0.097752,0.14663,0.039101
0.10753,0.087977,0.14663,0.048876
0.087977,0.087977,0.13685,0.039101
0.078201,0.087977,0.14663,0.039101
0.078201,0.087977,0.14663,0.029326
0.087977,0.078201,0.18573,0.029326
0.097752,0.078201,0.18573,0.039101
0.097752,0.068426,0.17595,0.048876
0.078201,0.068426,0.18573,0.058651
0.068426,0.078201,0.21505,0.078201
0.078201,0.087977,0.22483,0.097752
0.068426,0.097752,0.25415,0.10753
0.058651,0.097752,0.25415,0.1173
0.078201,0.097752,0.26393,0.1173
0.087977,0.087977,0.22483,0.1173
0.087977,0.078201,0.24438,0.10753
0.097752,0.068426,0.2346,0.10753
0.078201,0.068426,0.21505,0.1173
0.078201,0.068426,0.20528,0.16618
0.068426,0.068426,0.1955,0.1955
0.097752,0.068426,0.17595,0.21505
0.097752,0.068426,0.18573,0.21505
0.097752,0.058651,0.1564,0.2346
0.1173,0.058651,0.16618,0.22483
0.12708,0.058651,0.16618,0.20528
0.12708,0.058651,0.17595,0.17595
0.1173,0.058651,0.20528,0.18573
0.12708,0.058651,0.21505,0.17595
0.12708,0.068426,0.22483,0.16618
0.1173,0.068426,0.2346,0.16618
0.097752,0.078201,0.26393,0.17595
0.087977,0.078201,0.28348,0.16618
0.068426,0.068426,0.26393,0.17595
0.078201,0.068426,0.22483,0.17595
0.10753,0.078201,0.20528,0.20528
0.13685,0.078201,0.26393,0.20528
0.12708,0.058651,0.30303,0.20528
0.1173,0.058651,0.2737,0.21505
0.10753,0.048876,0.33236,0.21505
0.10753,0.048876,0.47898,0.22483
0.10753,0.058651,0.83089,0.22483
0.12708,0.058651,0.91887,0.25415
0.16618,0.048876,0.83089,0.29326
0.1955,0.058651,0.76246,0.26393
0.1955,0.058651,0.79179,0.26393
0.1955,0.058651,0.84066,0.25415
0.18573,0.048876,0.74291,0.22483
0.16618,0.068426,0.68426,0.1955
0.14663,0.078201,0.71359,0.20528
0.13685,0.087977,0.85044,0.21505
0.12708,0.087977,0.78201,0.20528
0.10753,0.078201,0.65494,0.20528
0.10753,0.068426,0.56696,0.22483
0.10753,0.068426,0.47898,0.31281
0.10753,0.058651,0.42033,0.39101
0.10753,0.048876,0.40078,0.40078
0.1173,0.048876,0.40078,0.45943
0.12708,0.048876,0.41056,0.43988
0.13685,0.058651,0.36168,0.46921
0.13685,0.058651,0.30303,0.46921
0.12708,0.058651,0.33236,0.47898
0.1173,0.058651,0.39101,0.52786
0.097752,0.058651,0.40078,0.51808
0.087977,0.068426,0.38123,0.54741
0.087977,0.087977,0.37146,0.45943
0.087977,0.078201,0.34213,0.39101
0.078201,0.068426,0.32258,0.33236
0.068426,0.068426,0.28348,0.38123
0.068426,0.068426,0.26393,0.36168
0.058651,0.078201,0.2346,0.34213
0.068426,0.087977,0.20528,0.33236
0.078201,0.097752,0.21505,0.28348
0.078201,0.097752,0.24438,0.2737
0.078201,0.10753,0.24438,0.2346
0.068426,0.097752,0.22483,0.24438
0.058651,0.10753,0.30303,0.25415
0.039101,0.1173,0.35191,0.21505
0.039101,0.1173,0.36168,0.1955
0.039101,0.1173,0.32258,0.16618
0.039101,0.1173,0.32258,0.14663
0.029326,0.1173,0.28348,0.16618
0.01955,0.12708,0.26393,0.16618
0.01955,0.13685,0.26393,0.1564
0.01955,0.14663,0.31281,0.14663
0.01955,0.14663,0.41056,0.12708
0.029326,0.1564,0.35191,0.1173
0.039101,0.1564,0.31281,0.10753
0.039101,0.1564,0.26393,0.097752
0.039101,0.18573,0.22483,0.087977
0.029326,0.20528,0.22483,0.068426
0.01955,0.22483,0.21505,0.068426
0.01955,0.21505,0.24438,0.058651
0.01955,0.20528,0.21505,0.058651
0.01955,0.21505,0.1955,0.048876
0.029326,0.2737,0.21505,0.048876
0.039101,0.2737,0.2346,0.068426
0.068426,0.2346,0.2346,0.087977
0.078201,0.21505,0.2346,0.087977
0.068426,0.21505,0.2346,0.068426
0.058651,0.20528,0.21505,0.068426
0.048876,0.22483,0.26393,0.068426
0.058651,0.29326,0.24438,0.058651
0.058651,0.33236,0.24438,0.048876
0.048876,0.30303,0.24438,0.048876
0.048876,0.28348,0.2737,0.058651
0.039101,0.30303,0.26393,0.058651
0.039101,0.30303,0.25415,0.048876
0.048876,0.30303,0.24438,0.058651
0.048876,0.28348,0.2346,0.048876
0.039101,0.2737,0.25415,0.048876
0.058651,0.25415,0.25415,0.048876
0.058651,0.24438,0.22483,0.048876
0.048876,0.44966,0.2346,0.048876
0.039101,0.73314,0.21505,0.039101
0.048876,0.69404,0.21505,0.048876
0.039101,0.76246,0.18573,0.068426
0.048876,0.71359,0.16618,0.087977
0.039101,0.63539,0.16618,0.087977
0.039101,0.60606,0.20528,0.10753
0.048876,0.90909,0.1955,0.12708
0.048876,0.80156,0.21505,0.13685
0.078201,0.72336,0.20528,0.1173
0.078201,0.76246,0.20528,0.097752
0.087977,0.86999,0.1955,0.087977
0.087977,0.89932,0.17595,0.087977
0.1173,1.0459,0.16618,0.068426
0.12708,1.085,0.16618,0.058651
0.10753,0.95797,0.16618,0.048876
0.087977,0.79179,0.16618,0.048876
0.078201,0.65494,0.14663,0.039101
0.058651,0.55718,0.14663,0.039101
0.058651,0.46921,0.14663,0.048876
0.078201,0.40078,0.14663,0.048876
0.097752,0.34213,0.1564,0.078201
0.10753,0.33236,0.1564,0.13685
0.097752,0.38123,0.1564,0.12708
0.087977,0.36168,0.14663,0.13685
0.078201,0.30303,0.12708,0.16618
0.068426,0.25415,0.10753,0.16618
0.058651,0.21505,0.10753,0.14663
0.078201,0.21505,0.10753,0.14663
0.1173,0.2346,0.097752,0.13685
0.14663,0.22483,0.087977,0.12708
0.1564,0.1955,0.078201,0.1173
0.13685,0.17595,0.078201,0.10753
0.13685,0.18573,0.078201,0.10753
0.1173,0.17595,0.078201,0.097752
0.10753,0.22483,0.078201,0.078201
0.10753,0.28348,0.068426,0.078201
0.10753,0.2346,0.068426,0.078201
0.13685,0.2346,0.068426,0.078201
0.13685,0.25415,0.078201,0.078201
0.1173,0.24438,0.068426,0.087977
0.097752,0.21505,0.068426,0.078201
0.078201,0.18573,0.058651,0.078201
0.068426,0.1564,0.068426,0.058651
0.048876,0.16618,0.058651,0.058651
0.058651,0.1564,0.078201,0.058651
0.078201,0.1564,0.068426,0.048876
0.087977,0.14663,0.068426,0.058651
0.12708,0.14663,0.068426,0.068426
0.13685,0.1173,0.068426,0.068426
0.16618,0.14663,0.058651,0.058651
0.16618,0.16618,0.048876,0.058651
0.1564,0.22483,0.068426,0.048876
0.14663,0.2346,0.058651,0.039101
0.13685,0.21505,0.058651,0.048876
0.1173,0.21505,0.058651,0.048876
0.1173,0.20528,0.058651,0.097752
0.097752,0.17595,0.068426,0.14663
0.12708,0.1564,0.078201,0.1955
0.13685,0.13685,0.097752,0.1955
0.12708,0.13685,0.12708,0.17595
0.1173,0.13685,0.14663,0.16618
0.14663,0.13685,0.1564,0.13685
0.17595,0.1173,0.1564,0.12708
0.17595,0.097752,0.14663,0.13685
0.16618,0.097752,0.12708,0.13685
0.17595,0.087977,0.12708,0.12708
0.17595,0.097752,0.13685,0.10753
0.1564,0.10753,0.1564,0.087977
0.1564,0.13685,0.17595,0.078201
0.20528,0.12708,0.17595,0.087977
0.1955,0.1173,0.14663,0.087977
0.18573,0.10753,0.12708,0.097752
0.18573,0.10753,0.1173,0.097752
0.18573,0.10753,0.097752,0.1173
0.17595,0.12708,0.087977,0.12708
0.1955,0.12708,0.10753,0.12708
0.20528,0.10753,0.087977,0.1173
0.24438,0.087977,0.087977,0.097752
0.26393,0.078201,0.097752,0.097752
0.2346,0.068426,0.097752,0.087977
0.22483,0.058651,0.097752,0.078201
0.25415,0.058651,0.10753,0.068426
0.2346,0.068426,0.14663,0.068426
0.21505,0.078201,0.17595,0.078201
0.21505,0.087977,0.1955,0.078201
0.20528,0.087977,0.21505,0.068426
0.18573,0.078201,0.20528,0.058651
0.17595,0.068426,0.20528,0.048876
0.17595,0.068426,0.21505,0.048876
0.18573,0.087977,0.21505,0.048876
0.16618,0.078201,0.2346,0.068426
0.14663,0.078201,0.22483,0.068426
0.1564,0.078201,0.24438,0.058651
0.16618,0.097752,0.21505,0.058651
0.21505,0.087977,0.17595,0.048876
0.2346,0.078201,0.1564,0.039101
0.22483,0.068426,0.1564,0.039101
0.2346,0.078201,0.13685,0.039101
0.21505,0.068426,0.14663,0.039101
0.20528,0.058651,0.13685,0.029326
0.29326,0.048876,0.12708,0.029326
0.37146,0.058651,0.1173,0.029326
0.46921,0.058651,0.10753,0.029326
0.57674,0.058651,0.1173,0.048876
0.84066,0.068426,0.18573,0.039101
0.96774,0.058651,0.24438,0.029326
0.81134,0.048876,0.24438,0.029326
0.67449,0.048876,0.22483,0.029326
0.67449,0.048876,0.21505,0.039101
0.73314,0.048876,0.1955,0.048876
0.67449,0.048876,0.1955,0.058651
0.58651,0.048876,0.17595,0.078201
0.47898,0.048876,0.16618,0.078201
0.40078,0.039101,0.1955,0.078201
0.35191,0.039101,0.22483,0.068426
0.35191,0.048876,0.28348,0.058651
0.35191,0.048876,0.33236,0.058651
0.32258,0.039101,0.33236,0.048876
0.2737,0.039101,0.33236,0.048876
0.22483,0.048876,0.30303,0.048876
0.1955,0.048876,0.2737,0.048876
0.16618,0.039101,0.28348,0.048876
0.14663,0.029326,0.2737,0.048876
0.1173,0.039101,0.26393,0.058651
0.097752,0.029326,0.24438,0.068426
0.087977,0.029326,0.22483,0.068426
0.087977,0.029326,0.2346,0.087977
0.078201,0.029326,0.2346,0.10753
0.068426,0.029326,0.22483,0.1173
0.078201,0.029326,0.24438,0.1173
0.078201,0.01955,0.24438,0.12708
0.087977,0.01955,0.28348,0.1173
0.087977,0.029326,0.33236,0.1173
0.087977,0.029326,0.38123,0.12708
0.068426,0.029326,0.39101,0.13685
0.068426,0.039101,0.37146,0.12708
0.068426,0.039101,0.35191,0.14663
0.10753,0.058651,0.30303,0.1955
0.13685,0.078201,0.2737,0.1955
0.12708,0.068426,0.25415,0.16618
0.10753,0.058651,0.21505,0.17595
0.087977,0.058651,0.21505,0.18573
0.078201,0.048876,0.24438,0.17595
0.068426,0.048876,0.26393,0.18573
0.058651,0.048876,0.31281,0.16618
0.058651,0.039101,0.33236,0.20528
0.068426,0.039101,0.30303,0.20528
0.087977,0.039101,0.30303,0.18573
0.078201,0.039101,0.28348,0.18573
0.097752,0.039101,0.25415,0.17595
0.10753,0.029326,0.2737,0.18573
0.10753,0.039101,0.2737,0.20528
0.1173,0.039101,0.26393,0.2346
0.13685,0.029326,0.28348,0.2346
0.1173,0.029326,0.53763,0.21505
0.097752,0.039101,0.78201,0.26393
0.087977,0.048876,0.90909,0.25415
0.068426,0.048876,0.78201,0.25415
0.058651,0.058651,0.75269,0.25415
0.068426,0.048876,0.78201,0.24438
0.078201,0.058651,0.79179,0.2346
0.087977,0.058651,0.77224,0.1955
0.13685,0.058651,0.64516,0.20528
0.16618,0.058651,0.60606,0.38123
0.1955,0.058651,0.58651,0.44966
0.20528,0.058651,0.50831,0.43011
0.18573,0.068426,0.42033,0.53763
0.1564,0.058651,0.37146,0.60606
0.12708,0.068426,0.33236,0.54741
0.10753,0.058651,0.28348,0.59629
0.10753,0.058651,0.25415,0.55718
0.10753,0.058651,0.22483,0.68426
0.1173,0.048876,0.25415,0.62561
0.1564,0.048876,0.20528,0.55718
0.1564,0.058651,0.16618,0.47898
0.16618,0.058651,0.14663,0.38123
0.16618,0.058651,0.1564,0.33236
0.14663,0.058651,0.14663,0.28348
0.13685,0.068426,0.14663,0.28348
0.1173,0.068426,0.14663,0.2737
0.097752,0.068426,0.14663,0.22483
0.087977,0.087977,0.13685,0.1955
0.087977,0.078201,0.1173,0.1564
0.087977,0.078201,0.13685,0.14663
0.097752,0.078201,0.12708,0.1564
0.097752,0.087977,0.1173,0.1564
0.097752,0.097752,0.097752,0.13685
0.097752,0.10753,0.12708,0.1173
0.078201,0.10753,0.1173,0.097752
0.078201,0.10753,0.1173,0.1173
0.068426,0.12708,0.17595,0.1564
0.078201,0.12708,0.22483,0.13685
0.068426,0.12708,0.21505,0.12708
0.058651,0.14663,0.1955,0.12708
0.048876,0.1564,0.24438,0.1173
0.039101,0.14663,0.33236,0.12708
0.029326,0.1564,0.41056,0.12708
0.048876,0.17595,0.43988,0.1173
0.048876,0.17595,0.43988,0.10753
0.048876,0.17595,0.38123,0.13685
0.039101,0.16618,0.32258,0.1564
0.029326,0.1955,0.2737,0.1564
0.029326,0.16618,0.25415,0.14663
0.029326,0.1564,0.2346,0.1173
0.029326,0.14663,0.22483,0.097752
0.039101,0.16618,0.22483,0.10753
0.048876,0.18573,0.24438,0.12708
0.058651,0.20528,0.24438,0.12708
0.078201,0.25415,0.24438,0.10753
0.087977,0.26393,0.22483,0.097752
0.087977,0.2737,0.1955,0.087977
0.097752,0.25415,0.1564,0.078201
0.087977,0.2737,0.13685,0.068426
0.097752,0.2737,0.10753,0.058651
0.078201,0.2737,0.087977,0.068426
0.068426,0.24438,0.078201,0.078201
0.058651,0.24438,0.087977,0.078201
0.058651,0.22483,0.087977,0.078201
0.068426,0.22483,0.087977,0.097752
0.048876,0.20528,0.078201,0.10753
0.048876,0.28348,0.068426,0.087977
0.039101,0.35191,0.068426,0.078201
0.048876,0.37146,0.078201,0.068426
0.048876,0.42033,0.058651,0.058651
0.058651,0.52786,0.068426,0.058651
0.048876,0.63539,0.058651,0.048876
0.039101,0.72336,0.048876,0.048876
0.039101,1.3978,0.058651,0.039101
0.039101,1.9746,0.068426,0.048876
0.039101,1.9453,0.068426,0.078201
0.039101,1.6227,0.068426,0.12708
0.039101,1.4858,0.058651,0.1955
0.058651,1.3392,0.048876,0.21505
0.097752,1.4467,0.048876,0.18573
0.1564,1.564,0.048876,0.16618
0.17595,2.1896,0.058651,0.1564
0.17595,2.2874,0.048876,0.1564
0.16618,1.8671,0.048876,0.1564
0.1564,1.5347,0.048876,0.1564
0.14663,1.3685,0.039101,0.16618
0.14663,1.3294,0.048876,0.18573
0.1173,1.2903,0.048876,0.18573
0.13685,1.2512,0.048876,0.1564
0.16618,1.173,0.048876,0.13685
0.1564,1.2121,0.048876,0.1173
0.13685,1.0166,0.048876,0.097752
0.1173,0.90909,0.048876,0.087977
0.10753,0.82111,0.039101,0.078201
0.097752,0.74291,0.048876,0.068426
0.087977,0.72336,0.048876,0.058651
0.087977,0.66471,0.058651,0.048876
0.078201,0.54741,0.048876,0.039101
0.087977,0.44966,0.048876,0.029326
0.078201,0.38123,0.058651,0.029326
0.068426,0.33236,0.058651,0.029326
0.068426,0.34213,0.048876,0.029326
0.058651,0.47898,0.048876,0.029326
0.048876,0.54741,0.039101,0.01955
0.068426,0.51808,0.039101,0.01955
0.078201,0.44966,0.039101,0.01955
0.078201,0.45943,0.039101,0.01955
0.058651,0.52786,0.039101,0.01955
0.058651,0.46921,0.039101,0.01955
0.048876,0.51808,0.039101,0.029326
0.068426,0.50831,0.029326,0.029326
0.078201,0.43988,0.039101,0.039101
0.068426,0.46921,0.048876,0.048876
0.078201,0.53763,0.048876,0.039101
0.078201,0.45943,0.048876,0.048876
0.087977,0.50831,0.058651,0.039101
0.087977,0.54741,0.068426,0.039101
0.087977,0.57674,0.068426,0.039101
0.10753,0.47898,0.068426,0.048876
0.12708,0.40078,0.058651,0.039101
0.13685,0.37146,0.058651,0.048876
0.1173,0.45943,0.058651,0.048876
0.097752,0.51808,0.068426,0.048876
0.087977,0.55718,0.058651,0.048876
0.087977,0.46921,0.058651,0.039101
0.068426,0.46921,0.048876,0.039101
0.068426,0.51808,0.058651,0.029326
0.058651,0.43011,0.078201,0.029326
0.058651,0.43011,0.068426,0.01955
0.058651,0.39101,0.078201,0.01955
0.068426,0.40078,0.068426,0.01955
0.068426,0.33236,0.087977,0.01955
0.058651,0.32258,0.097752,0.01955
0.068426,0.31281,0.097752,0.01955
0.087977,0.30303,0.087977,0.01955
0.097752,0.26393,0.087977,0.01955
0.12708,0.24438,0.078201,0.029326
0.12708,0.25415,0.087977,0.029326
0.13685,0.26393,0.078201,0.029326
0.13685,0.29326,0.068426,0.029326
0.12708,0.29326,0.048876,0.01955
0.1173,0.35191,0.068426,0.029326
0.13685,0.32258,0.078201,0.01955
0.13685,0.34213,0.097752,0.039101
0.12708,0.29326,0.10753,0.039101
0.12708,0.25415,0.1173,0.039101
0.13685,0.2346,0.10753,0.039101
0.13685,0.21505,0.097752,0.029326
0.14663,0.22483,0.087977,0.029326
0.13685,0.1955,0.078201,0.039101
0.18573,0.17595,0.078201,0.029326
0.24438,0.1564,0.078201,0.048876
0.20528,0.1564,0.068426,0.048876
0.21505,0.14663,0.068426,0.048876
0.20528,0.17595,0.058651,0.039101
0.20528,0.18573,0.078201,0.039101
0.22483,0.18573,0.068426,0.029326
0.20528,0.18573,0.078201,0.029326
0.20528,0.21505,0.078201,0.039101
0.1955,0.24438,0.068426,0.048876
0.17595,0.20528,0.068426,0.039101
0.17595,0.20528,0.078201,0.029326
0.17595,0.21505,0.058651,0.029326
0.1564,0.21505,0.058651,0.029326
0.16618,0.18573,0.048876,0.01955
0.14663,0.18573,0.048876,0.01955
0.13685,0.18573,0.058651,0.01955
0.14663,0.17595,0.078201,0.01955
0.14663,0.18573,0.078201,0.029326
0.14663,0.17595,0.058651,0.039101
0.14663,0.1564,0.078201,0.058651
0.14663,0.17595,0.097752,0.058651
0.13685,0.1564,0.1173,0.048876
0.12708,0.16618,0.12708,0.058651
0.18573,0.1564,0.1564,0.058651
0.18573,0.14663,0.28348,0.058651
0.17595,0.13685,0.37146,0.058651
0.32258,0.1173,0.43011,0.048876
0.51808,0.1173,0.44966,0.048876
0.59629,0.097752,0.39101,0.039101
0.82111,0.10753,0.32258,0.039101
1.1046,0.10753,0.28348,0.039101
1.0655,0.10753,0.2737,0.058651
0.90909,0.10753,0.25415,0.078201
0.86999,0.10753,0.21505,0.087977
0.90909,0.10753,0.20528,0.087977
0.84066,0.10753,0.21505,0.087977
0.71359,0.097752,0.21505,0.058651
0.63539,0.097752,0.20528,0.058651
0.52786,0.087977,0.1955,0.048876
0.44966,0.087977,0.18573,0.048876
0.38123,0.087977,0.16618,0.068426
0.34213,0.087977,0.14663,0.087977
0.29326,0.078201,0.13685,0.078201
0.2737,0.068426,0.13685,0.078201
0.30303,0.058651,0.12708,0.068426
0.30303,0.068426,0.10753,0.10753
0.28348,0.078201,0.10753,0.14663
0.2737,0.068426,0.097752,0.14663
0.22483,0.068426,0.097752,0.16618
0.21505,0.078201,0.097752,0.18573
0.17595,0.097752,0.10753,0.26393
0.18573,0.1173,0.097752,0.34213
0.17595,0.13685,0.10753,0.33236
0.16618,0.10753,0.14663,0.29326
0.14663,0.097752,0.14663,0.2346
0.14663,0.087977,0.1564,0.1955
0.13685,0.097752,0.17595,0.1564
0.10753,0.087977,0.22483,0.13685
0.097752,0.078201,0.21505,0.12708
0.097752,0.068426,0.21505,0.12708
0.068426,0.2737,0.10753,0.26393
1.0068,1.173,1.4467,1.5445
0.82111,0.95797,1.1339,1.3001
0.65494,0.81134,0.89932,1.0557
0.51808,0.67449,0.73314,1.0068
0.43011,0.58651,0.58651,0.97752
0.35191,0.55718,0.46921,0.95797
0.30303,0.63539,0.37146,0.93842
0.2737,0.62561,0.30303,0.81134
0.24438,0.56696,0.24438,0.69404
0.20528,0.55718,0.21505,0.62561
0.17595,0.53763,0.1955,0.54741
0.1564,0.60606,0.18573,0.48876
0.13685,0.56696,0.1955,0.41056
0.1173,0.49853,0.18573,0.36168
0.10753,0.53763,0.17595,0.31281
0.097752,0.58651,0.1564,0.26393
0.10753,0.83089,0.18573,0.26393
0.097752,0.76246,0.21505,0.24438
0.097752,0.79179,0.1955,0.24438
0.1173,0.84066,0.16618,0.2737
0.1173,0.75269,0.1564,0.26393
0.1173,1.3978,0.1564,0.26393
0.10753,1.3001,0.14663,0.37146
0.097752,1.1828,0.13685,0.39101
0.087977,1.1241,0.12708,0.37146
0.068426,1.8573,0.1173,0.59629
0.068426,1.9746,0.10753,0.68426
0.087977,2.1994,0.1173,0.67449
0.097752,1.9257,0.13685,0.71359
0.10753,1.8964,0.1564,0.62561
0.087977,1.828,0.1564,0.53763
0.087977,1.4761,0.14663,0.43988
0.068426,1.2121,0.16618,0.37146
0.068426,1.2023,0.16618,0.35191
0.078201,1.3001,0.1955,0.31281
0.078201,1.173,0.2346,0.29326
0.068426,1.6031,0.26393,0.2737
0.058651,1.8866,0.26393,0.24438
0.048876,1.7791,0.25415,0.22483
0.048876,1.5054,0.24438,0.1955
0.058651,1.2708,0.26393,0.16618
0.048876,1.0753,0.26393,0.14663
0.048876,0.94819,0.24438,0.20528
0.048876,0.84066,0.25415,0.32258
0.068426,0.68426,0.2346,0.28348
0.087977,0.58651,0.25415,0.2346
0.087977,0.57674,0.22483,0.21505
0.078201,0.52786,0.2346,0.17595
0.068426,0.44966,0.26393,0.16618
0.058651,0.43011,0.28348,0.13685
0.058651,0.44966,0.28348,0.16618
0.058651,0.52786,0.26393,0.17595
0.048876,0.46921,0.2737,0.13685
0.058651,0.49853,0.30303,0.1173
0.058651,0.43011,0.29326,0.097752
0.058651,0.40078,0.26393,0.078201
0.048876,0.37146,0.33236,0.078201
0.048876,0.32258,0.35191,0.058651
0.048876,0.32258,0.43988,0.058651
0.039101,0.38123,0.63539,0.058651
0.048876,0.40078,0.70381,0.068426
0.039101,0.36168,0.69404,0.078201
0.048876,0.39101,0.78201,0.097752
0.048876,0.35191,0.70381,0.1173
0.078201,0.31281,0.81134,0.097752
0.087977,0.2737,0.71359,0.087977
0.097752,0.29326,0.71359,0.087977
0.10753,0.31281,0.67449,0.078201
0.10753,0.38123,0.93842,0.078201
0.1173,0.43011,0.95797,0.097752
0.12708,0.41056,0.91887,0.097752
0.12708,0.34213,0.81134,0.097752
0.13685,0.34213,0.79179,0.10753
0.18573,0.41056,0.74291,0.13685
0.22483,0.48876,0.70381,0.14663
0.22483,0.45943,0.67449,0.13685
0.1955,0.38123,0.65494,0.12708
0.22483,0.32258,0.58651,0.12708
0.20528,0.28348,0.50831,0.10753
0.20528,0.22483,0.49853,0.10753
0.18573,0.21505,0.43011,0.12708
0.1564,0.22483,0.41056,0.10753
0.13685,0.20528,0.43011,0.087977
0.13685,0.17595,0.43011,0.097752
0.1564,0.14663,0.36168,0.087977
0.17595,0.12708,0.34213,0.087977
0.16618,0.1173,0.33236,0.087977
0.17595,0.12708,0.32258,0.087977
0.16618,0.12708,0.31281,0.1173
0.18573,0.1173,0.29326,0.1173
0.1564,0.10753,0.28348,0.097752
0.14663,0.087977,0.26393,0.097752
0.14663,0.087977,0.24438,0.1173
0.12708,0.078201,0.25415,0.12708
0.1173,0.068426,0.2346,0.10753
0.10753,0.087977,0.20528,0.087977
0.097752,0.1173,0.1955,0.078201
0.097752,0.10753,0.21505,0.068426
0.078201,0.10753,0.1955,0.058651
0.087977,0.097752,0.18573,0.048876
0.087977,0.087977,0.17595,0.039101
0.087977,0.087977,0.14663,0.058651
0.10753,0.078201,0.16618,0.078201
0.1173,0.10753,0.14663,0.1173
0.10753,0.1564,0.13685,0.1564
0.10753,0.14663,0.1173,0.16618
0.087977,0.14663,0.1173,0.13685
0.087977,0.14663,0.1173,0.1173
0.087977,0.13685,0.12708,0.13685
0.087977,0.12708,0.12708,0.16618
0.10753,0.097752,0.12708,0.18573
0.1564,0.087977,0.17595,0.18573
0.24438,0.087977,0.17595,0.18573
0.29326,0.078201,0.1955,0.16618
0.31281,0.068426,0.1955,0.13685
0.34213,0.078201,0.18573,0.1173
0.34213,0.068426,0.20528,0.087977
0.33236,0.058651,0.21505,0.078201
0.2737,0.058651,0.1955,0.078201
0.25415,0.058651,0.20528,0.068426
0.24438,0.048876,0.1955,0.068426
0.26393,0.048876,0.17595,0.058651
0.30303,0.048876,0.16618,0.058651
0.33236,0.048876,0.1564,0.058651
0.31281,0.048876,0.14663,0.058651
0.31281,0.058651,0.14663,0.048876
0.29326,0.068426,0.17595,0.048876
0.32258,0.068426,0.17595,0.039101
0.31281,0.068426,0.18573,0.039101
0.26393,0.058651,0.17595,0.039101
0.25415,0.058651,0.16618,0.039101
0.2346,0.068426,0.1564,0.029326
0.22483,0.058651,0.16618,0.029326
0.21505,0.068426,0.16618,0.048876
0.1955,0.068426,0.17595,0.039101
0.16618,0.068426,0.1564,0.039101
0.16618,0.068426,0.13685,0.039101
0.1564,0.078201,0.1173,0.029326
0.18573,0.078201,0.14663,0.029326
0.16618,0.078201,0.14663,0.029326
0.14663,0.078201,0.13685,0.029326
0.13685,0.078201,0.12708,0.029326
0.1173,0.078201,0.12708,0.048876
0.12708,0.078201,0.12708,0.058651
0.21505,0.078201,0.12708,0.058651
0.25415,0.097752,0.13685,0.058651
0.31281,0.10753,0.13685,0.058651
0.40078,0.097752,0.12708,0.048876
0.55718,0.14663,0.1173,0.058651
0.61584,0.13685,0.12708,0.048876
0.86999,0.12708,0.13685,0.039101
1.2121,0.13685,0.13685,0.048876
1.2219,0.14663,0.14663,0.039101
1.0557,0.14663,0.14663,0.039101
0.99707,0.12708,0.13685,0.039101
0.83089,0.13685,0.14663,0.039101
0.73314,0.12708,0.16618,0.029326
0.66471,0.13685,0.1564,0.029326
0.55718,0.1173,0.17595,0.029326
0.45943,0.1173,0.16618,0.029326
0.37146,0.10753,0.14663,0.029326
0.36168,0.10753,0.21505,0.039101
0.32258,0.097752,0.21505,0.039101
0.30303,0.097752,0.20528,0.039101
0.2737,0.10753,0.20528,0.039101
0.22483,0.097752,0.21505,0.039101
0.1955,0.1173,0.24438,0.039101
0.17595,0.10753,0.20528,0.039101
0.18573,0.097752,0.1955,0.039101
0.17595,0.097752,0.21505,0.029326
0.16618,0.097752,0.20528,0.039101
0.13685,0.097752,0.21505,0.039101
0.13685,0.097752,0.21505,0.029326
0.1173,0.078201,0.21505,0.01955
0.097752,0.087977,0.18573,0.039101
0.087977,0.087977,0.18573,0.029326
0.068426,0.078201,0.20528,0.029326
0.10753,0.078201,0.1955,0.039101
0.14663,0.078201,0.18573,0.029326
0.14663,0.078201,0.18573,0.048876
0.13685,0.078201,0.1564,0.058651
0.13685,0.078201,0.1955,0.068426
0.14663,0.078201,0.16618,0.068426
0.13685,0.078201,0.16618,0.078201
0.13685,0.078201,0.1564,0.068426
0.1955,0.078201,0.14663,0.058651
0.18573,0.087977,0.12708,0.048876
0.17595,0.097752,0.12708,0.039101
0.2346,0.097752,0.12708,0.048876
0.1955,0.10753,0.1173,0.048876
0.17595,0.087977,0.10753,0.048876
0.14663,0.10753,0.097752,0.048876
0.13685,0.097752,0.097752,0.097752
0.12708,0.12708,0.097752,0.087977
0.1173,0.13685,0.097752,0.097752
0.13685,0.14663,0.087977,0.097752
0.17595,0.1564,0.10753,0.087977
0.22483,0.1564,0.097752,0.078201
0.22483,0.14663,0.097752,0.058651
0.20528,0.14663,0.097752,0.048876
0.18573,0.14663,0.097752,0.048876
0.1564,0.14663,0.1173,0.039101
0.18573,0.1564,0.13685,0.039101
0.24438,0.16618,0.1564,0.058651
0.22483,0.14663,0.16618,0.048876
0.26393,0.14663,0.14663,0.039101
0.30303,0.14663,0.13685,0.039101
0.36168,0.16618,0.1173,0.029326
0.39101,0.14663,0.13685,0.029326
0.36168,0.1564,0.12708,0.01955
0.43988,0.18573,0.12708,0.029326
0.43988,0.18573,0.13685,0.029326
0.41056,0.18573,0.17595,0.01955
0.33236,0.17595,0.22483,0.01955
0.2737,0.17595,0.37146,0.01955
0.21505,0.18573,0.41056,0.039101
0.1955,0.21505,0.41056,0.048876
0.17595,0.21505,0.38123,0.058651
0.1955,0.2346,0.41056,0.058651
0.24438,0.26393,0.43011,0.048876
0.29326,0.25415,0.43011,0.068426
0.31281,0.29326,0.40078,0.078201
0.2737,0.2737,0.42033,0.12708
0.22483,0.28348,0.42033,0.14663
0.21505,0.25415,0.38123,0.14663
0.20528,0.29326,0.43011,0.13685
0.1955,0.35191,0.50831,0.12708
0.16618,0.36168,0.50831,0.1173
0.1564,0.43988,0.43011,0.1173
0.1564,0.61584,0.36168,0.1173
0.14663,0.69404,0.36168,0.10753
0.12708,0.83089,0.40078,0.097752
0.10753,0.83089,0.43011,0.1173
0.087977,0.80156,0.42033,0.10753
0.068426,0.76246,0.38123,0.097752
0.058651,1.3196,0.34213,0.097752
0.048876,2.1212,0.30303,0.1173
0.039101,2.219,0.30303,0.14663
0.048876,2.61,0.2737,0.17595
0.058651,2.5024,0.24438,0.1955
0.058651,2.0919,0.2346,0.17595
0.048876,1.8084,0.24438,0.25415
0.048876,1.9355,0.2346,0.37146
0.048876,1.7986,0.22483,0.41056
0.048876,1.4467,0.22483,0.43011
0.039101,1.1828,0.20528,0.39101
0.039101,1.2023,0.20528,0.33236
0.029326,1.4565,0.2346,0.33236
0.029326,1.6911,0.21505,0.29326
0.039101,1.652,0.21505,0.24438
0.048876,1.3978,0.22483,0.30303
0.048876,1.3392,0.22483,0.41056
0.068426,1.4076,0.2737,0.50831
0.097752,1.5054,0.36168,0.54741
0.087977,1.6618,0.36168,0.50831
0.068426,1.5249,0.38123,0.43988
0.058651,1.3001,0.43988,0.37146
0.048876,1.0362,0.51808,0.32258
0.058651,0.87977,0.57674,0.28348
0.068426,0.73314,0.61584,0.26393
0.068426,0.65494,0.55718,0.22483
0.058651,0.64516,0.46921,0.21505
0.058651,0.64516,0.43988,0.20528
0.048876,0.66471,0.42033,0.20528
0.048876,1.0166,0.44966,0.22483
0.048876,1.0264,0.47898,0.21505
0.048876,0.82111,0.48876,0.22483
0.048876,0.81134,0.43988,0.20528
0.058651,0.81134,0.40078,0.16618
0.068426,0.75269,0.35191,0.14663
0.058651,0.64516,0.30303,0.14663
0.058651,0.64516,0.28348,0.14663
0.048876,0.57674,0.29326,0.16618
0.058651,0.72336,0.28348,0.17595
0.048876,0.96774,0.2737,0.32258
0.048876,1.0948,0.25415,0.49853
0.048876,1.1828,0.2346,0.59629
0.039101,1.1828,0.25415,0.75269
0.039101,0.99707,0.28348,0.68426
0.048876,0.87977,0.31281,0.61584
0.058651,0.71359,0.31281,0.54741
0.058651,0.62561,0.2737,0.76246
0.078201,0.55718,0.2346,1.2317
0.078201,0.45943,0.24438,1.2512
0.068426,0.41056,0.22483,1.3881
0.068426,0.38123,0.21505,1.4272
0.048876,0.36168,0.22483,1.4663
0.048876,0.33236,0.21505,1.3196
0.068426,0.26393,0.21505,1.1339
0.10753,0.24438,0.24438,0.96774
0.12708,0.28348,0.24438,0.81134
0.18573,0.33236,0.44966,0.66471
0.17595,0.32258,0.41056,0.56696
0.14663,0.33236,0.58651,0.46921
0.13685,0.28348,0.69404,0.39101
0.12708,0.29326,0.65494,0.35191
0.1173,0.33236,0.81134,0.30303
0.1173,0.30303,0.79179,0.28348
0.1173,0.25415,0.66471,0.25415
0.10753,0.22483,0.59629,0.25415
0.097752,0.1955,0.55718,0.25415
0.097752,0.25415,0.47898,0.20528
0.087977,0.22483,0.40078,0.17595
0.097752,0.18573,0.33236,0.1564
0.087977,0.16618,0.29326,0.12708
0.097752,0.14663,0.28348,0.1173
0.13685,0.1564,0.26393,0.12708
0.1173,0.16618,0.26393,0.13685
0.10753,0.14663,0.28348,0.18573
0.087977,0.1173,0.30303,0.29326
0.078201,0.12708,0.29326,0.43011
0.068426,0.10753,0.32258,0.43988
0.068426,0.1173,0.45943,0.36168
0.058651,0.1173,0.55718,0.31281
0.048876,0.1173,0.51808,0.24438
0.039101,0.14663,0.54741,0.2346
0.058651,0.17595,0.52786,0.1955
0.058651,0.17595,0.43988,0.2737
0.058651,0.16618,0.36168,0.39101
0.058651,0.17595,0.33236,0.36168
0.10753,0.16618,0.28348,0.34213
0.1955,0.14663,0.24438,0.30303
0.26393,0.12708,0.20528,0.40078
0.29326,0.13685,0.1955,0.46921
0.28348,0.12708,0.20528,0.45943
0.28348,0.12708,0.22483,0.43011
0.29326,0.1173,0.20528,0.38123
0.30303,0.14663,0.17595,0.32258
0.2737,0.1564,0.1564,0.29326
0.26393,0.14663,0.13685,0.2346
0.24438,0.12708,0.12708,0.20528
0.21505,0.14663,0.1564,0.16618
0.18573,0.13685,0.1955,0.16618
0.16618,0.12708,0.26393,0.1564
0.17595,0.10753,0.26393,0.14663
0.16618,0.097752,0.21505,0.12708
0.18573,0.097752,0.1955,0.13685
0.1955,0.078201,0.17595,0.12708
0.17595,0.068426,0.1955,0.12708
0.18573,0.078201,0.17595,0.1173
0.16618,0.078201,0.18573,0.1173
0.1564,0.078201,0.1955,0.1173
0.12708,0.068426,0.22483,0.13685
0.13685,0.058651,0.22483,0.2346
0.13685,0.058651,0.1955,0.30303
0.18573,0.078201,0.18573,0.29326
0.21505,0.087977,0.17595,0.26393
0.21505,0.10753,0.16618,0.26393
0.18573,0.1173,0.14663,0.28348
0.1564,0.097752,0.14663,0.31281
0.16618,0.087977,0.13685,0.30303
0.1564,0.078201,0.12708,0.28348
0.1564,0.068426,0.10753,0.26393
0.17595,0.068426,0.1173,0.21505
0.17595,0.058651,0.1173,0.18573
0.16618,0.058651,0.1173,0.14663
0.1564,0.058651,0.12708,0.1173
0.1564,0.058651,0.12708,0.1173
0.16618,0.048876,0.13685,0.097752
0.18573,0.058651,0.1564,0.087977
0.1955,0.048876,0.14663,0.078201
0.1955,0.048876,0.14663,0.087977
0.1955,0.058651,0.14663,0.097752
0.17595,0.048876,0.12708,0.087977
0.1955,0.048876,0.12708,0.068426
0.1955,0.048876,0.1173,0.068426
0.1955,0.039101,0.10753,0.058651
0.22483,0.048876,0.097752,0.058651
0.28348,0.048876,0.097752,0.058651
0.43011,0.048876,0.097752,0.068426
0.44966,0.058651,0.087977,0.058651
0.43011,0.048876,0.087977,0.058651
0.61584,0.058651,0.087977,0.048876
0.78201,0.068426,0.087977,0.039101
0.65494,0.068426,0.097752,0.039101
0.59629,0.087977,0.087977,0.039101
0.57674,0.078201,0.087977,0.029326
0.51808,0.078201,0.078201,0.029326
0.44966,0.058651,0.068426,0.029326
0.41056,0.058651,0.068426,0.039101
0.40078,0.048876,0.058651,0.048876
0.34213,0.058651,0.058651,0.058651
0.29326,0.048876,0.048876,0.058651
0.26393,0.048876,0.048876,0.048876
0.21505,0.048876,0.039101,0.048876
0.18573,0.048876,0.039101,0.048876
0.14663,0.058651,0.048876,0.039101
0.12708,0.058651,0.048876,0.039101
0.10753,0.078201,0.048876,0.039101
0.087977,0.097752,0.039101,0.039101
0.087977,0.087977,0.048876,0.029326
0.087977,0.087977,0.048876,0.029326
0.078201,0.087977,0.048876,0.029326
0.068426,0.078201,0.048876,0.029326
0.068426,0.087977,0.039101,0.039101
0.048876,0.087977,0.048876,0.048876
0.048876,0.10753,0.039101,0.048876
0.058651,0.10753,0.048876,0.048876
0.078201,0.1173,0.039101,0.039101
0.087977,0.1173,0.039101,0.039101
0.097752,0.1173,0.039101,0.048876
0.078201,0.12708,0.048876,0.048876
0.058651,0.1173,0.048876,0.048876
0.058651,0.1173,0.048876,0.058651
0.058651,0.1564,0.039101,0.068426
0.058651,0.1564,0.048876,0.058651
0.068426,0.14663,0.048876,0.058651
0.087977,0.13685,0.058651,0.058651
0.087977,0.14663,0.058651,0.058651
0.097752,0.16618,0.058651,0.068426
0.078201,0.16618,0.058651,0.078201
0.087977,0.18573,0.048876,0.078201
0.078201,0.18573,0.058651,0.078201
0.068426,0.21505,0.058651,0.068426
0.058651,0.21505,0.048876,0.058651
0.068426,0.2346,0.078201,0.048876
0.068426,0.25415,0.097752,0.039101
0.087977,0.2737,0.10753,0.029326
0.087977,0.25415,0.097752,0.039101
0.078201,0.24438,0.087977,0.048876
0.068426,0.2346,0.087977,0.039101
0.058651,0.25415,0.087977,0.058651
0.058651,0.24438,0.097752,0.058651
0.058651,0.25415,0.078201,0.058651
0.058651,0.24438,0.078201,0.058651
0.087977,0.29326,0.078201,0.078201
0.097752,0.28348,0.068426,0.068426
0.087977,0.34213,0.087977,0.058651
0.078201,0.52786,0.078201,0.058651
0.087977,0.65494,0.087977,0.058651
0.078201,0.65494,0.087977,0.058651
0.087977,0.67449,0.097752,0.068426
0.12708,0.59629,0.10753,0.078201
0.17595,0.87977,0.1173,0.087977
0.18573,0.88954,0.12708,0.078201
0.22483,1.8182,0.13685,0.087977
0.20528,2.4536,0.14663,0.10753
0.16618,1.9062,0.12708,0.12708
0.13685,1.4761,0.1173,0.10753
0.12708,1.1535,0.10753,0.14663
0.10753,1.1241,0.087977,0.16618
0.097752,1.3978,0.087977,0.26393
0.078201,1.9746,0.10753,0.24438
0.087977,1.9844,0.1564,0.21505
0.1173,1.6422,0.24438,0.18573
0.1173,1.6716,0.25415,0.16618
0.10753,1.4467,0.35191,0.13685
0.097752,1.652,0.43011,0.14663
0.097752,1.5152,0.46921,0.12708
0.10753,1.3783,0.47898,0.12708
0.10753,1.1632,0.43011,0.1173
0.1173,1.0264,0.34213,0.1173
0.10753,1.0362,0.33236,0.10753
0.087977,0.99707,0.31281,0.13685
0.078201,0.99707,0.30303,0.1564
0.078201,0.86999,0.28348,0.17595
0.078201,0.75269,0.28348,0.21505
0.068426,0.66471,0.29326,0.25415
0.058651,0.55718,0.25415,0.28348
0.048876,0.49853,0.2346,0.32258
0.039101,0.40078,0.20528,0.34213
0.029326,0.33236,0.18573,0.34213
0.039101,0.30303,0.1564,0.43988
0.029326,0.39101,0.16618,0.44966
0.029326,0.41056,0.14663,0.44966
0.01955,0.39101,0.1564,0.43011
0.01955,0.43988,0.16618,0.43011
0.01955,0.41056,0.13685,0.41056
0.01955,0.36168,0.13685,0.34213
0.01955,0.37146,0.13685,0.30303
0.01955,0.33236,0.13685,0.26393
0.029326,0.30303,0.12708,0.24438
0.01955,0.29326,0.14663,0.22483
0.01955,0.46921,0.18573,0.22483
0.0097752,0.69404,0.22483,0.24438
0.0097752,1.0362,0.25415,0.28348
0.01955,1.1926,0.26393,0.30303
0.01955,1.2708,0.28348,0.32258
0.01955,1.0166,0.26393,0.32258
0.01955,1.5836,0.25415,0.29326
0.01955,2.2385,0.28348,0.26393
0.01955,2.2581,0.28348,0.24438
0.01955,1.9159,0.26393,0.2346
0.029326,1.652,0.25415,0.21505
0.029326,1.4076,0.2737,0.1955
0.029326,1.1437,0.29326,0.16618
0.039101,0.92864,0.32258,0.1564
0.039101,0.74291,0.39101,0.26393
0.039101,0.61584,0.43011,0.36168
0.039101,0.51808,0.45943,0.35191
0.039101,0.43988,0.44966,0.30303
0.029326,0.37146,0.43988,0.32258
0.029326,0.30303,0.41056,0.32258
0.029326,0.26393,0.38123,0.30303
0.029326,0.22483,0.41056,0.28348
0.039101,0.1955,0.40078,0.30303
0.048876,0.18573,0.42033,0.32258
0.048876,0.16618,0.40078,0.41056
0.048876,0.1564,0.38123,0.35191
0.039101,0.21505,0.40078,0.30303
0.048876,0.20528,0.42033,0.26393
0.039101,0.16618,0.43988,0.25415
0.039101,0.1564,0.48876,0.2737
0.029326,0.1564,0.64516,0.2737
0.029326,0.13685,0.75269,0.24438
0.029326,0.14663,0.78201,0.24438
0.039101,0.12708,0.86022,0.20528
0.039101,0.1173,0.87977,0.18573
0.048876,0.14663,0.86022,0.16618
0.048876,0.14663,1.0557,0.16618
0.048876,0.1564,1.1144,0.17595
0.058651,0.14663,1.0362,0.1955
0.087977,0.12708,1.0068,0.16618
0.12708,0.12708,0.86022,0.1564
0.16618,0.10753,0.74291,0.14663
0.17595,0.10753,0.80156,0.1173
0.1564,0.10753,0.73314,0.10753
0.14663,0.10753,0.67449,0.097752
0.13685,0.12708,0.65494,0.087977
0.17595,0.14663,0.69404,0.078201
0.1955,0.13685,0.61584,0.058651
0.20528,0.16618,0.52786,0.048876
0.21505,0.18573,0.47898,0.048876
0.22483,0.17595,0.43011,0.048876
0.25415,0.18573,0.39101,0.048876
0.25415,0.20528,0.35191,0.039101
0.2346,0.18573,0.32258,0.048876
0.1955,0.16618,0.2737,0.078201
0.20528,0.14663,0.24438,0.078201
0.21505,0.12708,0.24438,0.068426
0.21505,0.10753,0.25415,0.078201
0.1955,0.10753,0.22483,0.078201
0.1564,0.097752,0.22483,0.078201
0.12708,0.078201,0.24438,0.078201
0.097752,0.078201,0.34213,0.068426
0.087977,0.078201,0.32258,0.068426
0.10753,0.087977,0.30303,0.078201
0.097752,0.087977,0.26393,0.078201
0.078201,0.068426,0.2346,0.097752
0.068426,0.058651,0.18573,0.1173
0.068426,0.068426,0.18573,0.13685
0.087977,0.058651,0.17595,0.1173
0.078201,0.068426,0.16618,0.1173
0.068426,0.058651,0.1564,0.1173
0.068426,0.058651,0.1564,0.1173
0.078201,0.048876,0.18573,0.10753
0.10753,0.048876,0.16618,0.097752
0.13685,0.048876,0.14663,0.078201
0.1173,0.039101,0.14663,0.068426
0.10753,0.039101,0.18573,0.068426
0.087977,0.048876,0.16618,0.078201
0.087977,0.048876,0.18573,0.068426
0.078201,0.039101,0.22483,0.058651
0.068426,0.039101,0.24438,0.068426
0.068426,0.039101,0.2737,0.058651
0.078201,0.048876,0.26393,0.058651
0.078201,0.058651,0.22483,0.068426
0.097752,0.068426,0.1955,0.12708
0.097752,0.068426,0.21505,0.17595
0.10753,0.058651,0.26393,0.17595
0.097752,0.058651,0.2737,0.1564
0.10753,0.058651,0.33236,0.13685
0.10753,0.048876,0.29326,0.12708
0.10753,0.048876,0.2737,0.10753
0.1173,0.048876,0.26393,0.097752
0.1173,0.048876,0.2737,0.097752
0.13685,0.058651,0.28348,0.097752
0.14663,0.068426,0.32258,0.087977
0.14663,0.068426,0.31281,0.087977
0.14663,0.068426,0.29326,0.087977
0.16618,0.058651,0.2737,0.078201
0.17595,0.058651,0.26393,0.14663
0.17595,0.048876,0.26393,0.30303
0.17595,0.048876,0.32258,0.31281
0.18573,0.048876,0.32258,0.2737
0.17595,0.048876,0.34213,0.22483
0.1564,0.048876,0.31281,0.21505
0.17595,0.058651,0.32258,0.22483
0.17595,0.058651,0.35191,0.25415
0.16618,0.048876,0.30303,0.29326
0.16618,0.058651,0.26393,0.29326
0.1955,0.058651,0.25415,0.2737
0.18573,0.058651,0.21505,0.24438
0.1955,0.068426,0.1955,0.1955
0.16618,0.078201,0.18573,0.16618
0.1564,0.068426,0.16618,0.13685
0.14663,0.058651,0.14663,0.1173
0.1173,0.068426,0.13685,0.097752
0.12708,0.058651,0.1173,0.087977
0.1173,0.068426,0.10753,0.078201
0.10753,0.078201,0.097752,0.058651
0.12708,0.087977,0.097752,0.058651
0.13685,0.087977,0.078201,0.048876
0.13685,0.087977,0.087977,0.039101
0.13685,0.078201,0.087977,0.039101
0.1955,0.087977,0.068426,0.048876
0.35191,0.097752,0.068426,0.039101
0.78201,0.087977,0.087977,0.029326
1.1926,0.078201,0.068426,0.029326
1.4272,0.078201,0.068426,0.058651
1.2512,0.097752,0.068426,0.058651
1.1632,0.1173,0.078201,0.058651
1.1926,0.1173,0.097752,0.048876
1.0362,0.12708,0.097752,0.048876
0.87977,0.10753,0.097752,0.048876
0.86999,0.097752,0.097752,0.048876
0.78201,0.097752,0.087977,0.048876
0.63539,0.097752,0.097752,0.068426
0.59629,0.097752,0.1173,0.068426
0.55718,0.1173,0.12708,0.078201
0.48876,0.13685,0.14663,0.068426
0.41056,0.1173,0.1564,0.068426
0.39101,0.1173,0.18573,0.058651
0.35191,0.1173,0.20528,0.068426
0.31281,0.1173,0.20528,0.078201
0.30303,0.13685,0.18573,0.087977
0.26393,0.1564,0.1564,0.078201
0.21505,0.16618,0.13685,0.058651
0.17595,0.1564,0.1564,0.068426
0.1564,0.1564,0.1564,0.058651
0.17595,0.1564,0.1564,0.048876
0.17595,0.17595,0.14663,0.068426
0.18573,0.18573,0.14663,0.078201
0.18573,0.21505,0.1564,0.097752
0.1564,0.2737,0.14663,0.078201
0.18573,0.26393,0.14663,0.058651
0.18573,0.26393,0.12708,0.058651
0.17595,0.26393,0.1173,0.058651
0.16618,0.30303,0.097752,0.048876
0.13685,0.34213,0.097752,0.048876
0.13685,0.28348,0.12708,0.048876
0.1173,0.29326,0.1955,0.039101
0.13685,0.33236,0.26393,0.039101
0.17595,0.41056,0.31281,0.058651
0.1955,0.37146,0.32258,0.087977
0.1564,0.37146,0.29326,0.10753
0.13685,0.47898,0.24438,0.1173
0.12708,0.41056,0.20528,0.10753
0.10753,0.67449,0.17595,0.087977
0.097752,1.1339,0.14663,0.078201
0.12708,1.4858,0.12708,0.078201
0.13685,1.6129,0.20528,0.068426
0.14663,2.6197,0.25415,0.068426
0.12708,4.1349,0.2737,0.078201
0.13685,3.2356,0.2737,0.1173
0.12708,2.9912,0.22483,0.13685
0.10753,3.5191,0.26393,0.13685
0.097752,3.607,0.34213,0.1173
0.16618,2.9814,0.36168,0.10753
0.2346,2.3949,0.31281,0.097752
0.25415,2.0626,0.30303,0.087977
0.2737,2.0821,0.30303,0.1173
0.2737,2.3656,0.28348,0.12708
0.25415,2.7566,0.25415,0.13685
0.21505,2.5904,0.21505,0.1564
0.1955,2.043,0.17595,0.13685
0.17595,2.3558,0.1564,0.13685
0.16618,2.6197,0.13685,0.13685
0.13685,2.2678,0.14663,0.1173
0.16618,1.8573,0.12708,0.097752
0.30303,1.5738,0.1173,0.087977
0.36168,1.3392,0.10753,0.087977
0.39101,1.261,0.10753,0.078201
0.34213,1.0753,0.097752,0.068426
0.33236,0.88954,0.097752,0.068426
0.33236,0.80156,0.087977,0.087977
0.30303,0.68426,0.087977,0.10753
0.25415,0.67449,0.087977,0.13685
0.22483,0.61584,0.087977,0.14663
0.1955,0.49853,0.087977,0.17595
0.1564,0.43011,0.1173,0.17595
0.14663,0.42033,0.1173,0.17595
0.14663,0.41056,0.14663,0.18573
0.13685,0.37146,0.18573,0.20528
0.12708,0.69404,0.2346,0.20528
0.10753,0.95797,0.22483,0.1955
0.097752,1.1437,0.22483,0.21505
0.087977,1.0459,0.22483,0.22483
0.068426,0.92864,0.25415,0.21505
0.058651,0.89932,0.26393,0.20528
0.048876,1.0068,0.24438,0.1955
0.048876,1.7107,0.2346,0.18573
0.039101,2.043,0.21505,0.20528
0.039101,1.7889,0.21505,0.24438
0.029326,1.5347,0.20528,0.24438
0.029326,1.2903,0.25415,0.22483
0.01955,1.1046,0.24438,0.21505
0.01955,0.93842,0.25415,0.18573
0.01955,0.79179,0.2346,0.17595
0.0097752,0.74291,0.2737,0.1564
0.0097752,0.63539,0.28348,0.14663
0.01955,0.52786,0.26393,0.13685
0.01955,0.46921,0.29326,0.13685
0.01955,0.37146,0.30303,0.12708
0.039101,0.32258,0.29326,0.13685
0.039101,0.28348,0.29326,0.14663
0.039101,0.28348,0.30303,0.12708
0.039101,0.29326,0.2737,0.1173
0.029326,0.24438,0.28348,0.097752
0.029326,0.21505,0.26393,0.097752
0.029326,0.22483,0.29326,0.12708
0.058651,0.2346,0.30303,0.20528
0.058651,0.22483,0.29326,0.18573
0.058651,0.22483,0.29326,0.17595
0.058651,0.2346,0.28348,0.2737
0.048876,0.24438,0.28348,0.34213
0.058651,0.25415,0.29326,0.39101
0.048876,0.30303,0.33236,0.36168
0.039101,0.26393,0.32258,0.44966
0.048876,0.22483,0.50831,0.57674
0.078201,0.21505,0.90909,0.58651
0.097752,0.18573,0.92864,0.64516
0.078201,0.16618,0.88954,0.59629
0.087977,0.13685,0.95797,0.50831
0.087977,0.12708,0.94819,0.44966
0.087977,0.13685,0.83089,0.49853
0.087977,0.1173,0.69404,0.50831
0.087977,0.10753,0.66471,0.62561
0.078201,0.10753,0.64516,0.58651
0.078201,0.1173,0.54741,0.53763
0.087977,0.1173,0.47898,0.48876
0.097752,0.1173,0.43988,0.40078
0.097752,0.14663,0.42033,0.32258
0.087977,0.13685,0.37146,0.26393
0.087977,0.12708,0.37146,0.22483
0.068426,0.12708,0.39101,0.17595
0.058651,0.12708,0.50831,0.1564
0.058651,0.12708,0.49853,0.1564
0.058651,0.10753,0.42033,0.1955
0.048876,0.1173,0.35191,0.21505
0.087977,0.097752,0.32258,0.17595
0.1564,0.097752,0.29326,0.14663
0.20528,0.10753,0.28348,0.1173
0.20528,0.10753,0.26393,0.097752
0.17595,0.10753,0.22483,0.087977
0.2346,0.10753,0.20528,0.078201
0.37146,0.097752,0.17595,0.058651
0.40078,0.10753,0.1564,0.058651
0.38123,0.097752,0.17595,0.058651
0.34213,0.10753,0.18573,0.078201
0.30303,0.10753,0.17595,0.097752
0.24438,0.1173,0.17595,0.087977
0.22483,0.12708,0.14663,0.078201
0.1955,0.1173,0.13685,0.068426
0.18573,0.1173,0.12708,0.068426
0.1564,0.1173,0.1173,0.068426
0.12708,0.12708,0.10753,0.058651
0.1173,0.12708,0.097752,0.058651
0.13685,0.10753,0.13685,0.058651
0.20528,0.097752,0.1173,0.068426
0.22483,0.10753,0.13685,0.078201
0.20528,0.10753,0.1564,0.12708
0.21505,0.087977,0.13685,0.10753
0.24438,0.078201,0.12708,0.10753
0.24438,0.068426,0.1173,0.13685
0.31281,0.068426,0.10753,0.12708
0.32258,0.058651,0.12708,0.13685
0.30303,0.048876,0.14663,0.13685
0.24438,0.058651,0.14663,0.12708
0.21505,0.058651,0.18573,0.1173
0.20528,0.048876,0.22483,0.1173
0.18573,0.058651,0.20528,0.12708
0.16618,0.068426,0.24438,0.10753
0.17595,0.068426,0.29326,0.10753
0.26393,0.068426,0.26393,0.097752
0.24438,0.068426,0.28348,0.097752
0.21505,0.058651,0.29326,0.078201
0.18573,0.058651,0.2737,0.078201
0.1955,0.058651,0.2737,0.068426
0.1955,0.048876,0.30303,0.068426
0.18573,0.058651,0.29326,0.068426
0.16618,0.058651,0.25415,0.068426
0.1564,0.058651,0.2346,0.058651
0.14663,0.058651,0.25415,0.048876
0.13685,0.048876,0.26393,0.048876
0.1173,0.048876,0.24438,0.048876
0.1173,0.048876,0.21505,0.048876
0.1173,0.048876,0.18573,0.058651
0.1173,0.048876,0.17595,0.058651
0.12708,0.048876,0.1564,0.058651
0.13685,0.048876,0.12708,0.048876
0.1564,0.048876,0.10753,0.058651
0.14663,0.058651,0.097752,0.058651
0.14663,0.078201,0.078201,0.058651
0.14663,0.068426,0.068426,0.058651
0.1955,0.058651,0.058651,0.048876
0.22483,0.048876,0.058651,0.058651
0.2346,0.039101,0.068426,0.048876
0.24438,0.039101,0.068426,0.048876
0.22483,0.039101,0.058651,0.048876
0.22483,0.048876,0.058651,0.048876
0.21505,0.058651,0.058651,0.048876
0.21505,0.058651,0.058651,0.039101
0.2346,0.058651,0.048876,0.048876
0.20528,0.058651,0.048876,0.048876
0.18573,0.058651,0.048876,0.048876
0.1955,0.068426,0.058651,0.039101
0.1955,0.078201,0.068426,0.039101
0.21505,0.097752,0.068426,0.039101
0.1955,0.097752,0.068426,0.039101
0.18573,0.097752,0.078201,0.039101
0.17595,0.097752,0.068426,0.048876
0.18573,0.13685,0.068426,0.068426
0.17595,0.13685,0.058651,0.12708
0.1564,0.1564,0.048876,0.12708
0.1955,0.18573,0.058651,0.14663
0.20528,0.1955,0.068426,0.17595
0.46921,0.21505,0.078201,0.16618
0.57674,0.1955,0.087977,0.14663
0.55718,0.21505,0.087977,0.12708
0.48876,0.1955,0.087977,0.10753
0.90909,0.18573,0.078201,0.097752
1.0264,0.18573,0.068426,0.087977
1.1339,0.20528,0.068426,0.078201
1.1241,0.21505,0.058651,0.078201
0.99707,0.22483,0.058651,0.078201
0.88954,0.2346,0.048876,0.078201
0.75269,0.25415,0.048876,0.068426
0.66471,0.30303,0.048876,0.10753
0.54741,0.26393,0.058651,0.1564
0.47898,0.2737,0.048876,0.18573
0.39101,0.2737,0.048876,0.18573
0.34213,0.25415,0.058651,0.17595
0.34213,0.24438,0.048876,0.1564
0.28348,0.2346,0.048876,0.1564
0.2346,0.25415,0.039101,0.16618
0.1955,0.25415,0.039101,0.16618
0.22483,0.29326,0.039101,0.14663
0.29326,0.31281,0.039101,0.13685
0.25415,0.28348,0.039101,0.1173
0.25415,0.31281,0.039101,0.10753
0.22483,0.30303,0.039101,0.097752
0.1955,0.31281,0.039101,0.10753
0.22483,0.37146,0.039101,0.10753
0.2346,0.40078,0.029326,0.10753
0.2346,0.40078,0.029326,0.1173
0.1955,0.47898,0.029326,0.12708
0.16618,0.49853,0.029326,0.1173
0.13685,0.48876,0.039101,0.1173
0.10753,0.44966,0.048876,0.1173
0.1173,0.45943,0.048876,0.1173
0.12708,0.49853,0.048876,0.1173
0.14663,0.56696,0.058651,0.13685
0.12708,0.59629,0.068426,0.16618
0.1564,0.54741,0.068426,0.13685
0.14663,0.58651,0.068426,0.1173
0.1173,0.61584,0.087977,0.10753
0.16618,0.51808,0.12708,0.087977
0.1564,0.54741,0.16618,0.087977
0.13685,0.59629,0.1955,0.068426
0.13685,0.65494,0.20528,0.058651
0.12708,0.64516,0.18573,0.058651
0.13685,0.79179,0.1564,0.058651
0.20528,0.70381,0.13685,0.058651
0.44966,0.72336,0.1173,0.068426
0.44966,0.62561,0.12708,0.068426
0.38123,0.53763,0.097752,0.078201
0.34213,0.58651,0.10753,0.097752
0.34213,0.56696,0.13685,0.10753
0.44966,0.50831,0.1564,0.10753
0.45943,0.43988,0.17595,0.10753
0.40078,0.38123,0.33236,0.1173
0.31281,0.37146,0.45943,0.097752
0.26393,0.43988,0.50831,0.097752
0.22483,0.50831,0.49853,0.10753
0.17595,0.53763,0.43011,0.12708
0.14663,0.49853,0.39101,0.13685
0.1173,0.42033,0.35191,0.14663
0.10753,0.39101,0.32258,0.12708
0.097752,0.42033,0.28348,0.12708
0.097752,0.41056,0.26393,0.12708
0.13685,0.35191,0.28348,0.10753
0.13685,0.31281,0.28348,0.087977
0.1564,0.26393,0.26393,0.078201
0.1564,0.2346,0.22483,0.097752
0.2346,0.2346,0.21505,0.12708
0.30303,0.20528,0.22483,0.14663
0.31281,0.21505,0.24438,0.14663
0.29326,0.22483,0.24438,0.1173
0.25415,0.20528,0.24438,0.1173
0.20528,0.18573,0.2346,0.1173
0.18573,0.16618,0.2346,0.097752
0.1955,0.1564,0.25415,0.12708
0.20528,0.13685,0.24438,0.16618
0.1955,0.13685,0.22483,0.14663
0.17595,0.1173,0.18573,0.14663
0.1564,0.12708,0.18573,0.14663
0.14663,0.1173,0.17595,0.17595
0.13685,0.10753,0.17595,0.14663
0.12708,0.10753,0.16618,0.12708
0.12708,0.097752,0.20528,0.1173
0.1173,0.10753,0.22483,0.10753
0.10753,0.12708,0.2346,0.18573
0.087977,0.16618,0.20528,0.2346
0.078201,0.1564,0.18573,0.29326
0.058651,0.1564,0.1955,0.28348
0.048876,0.1564,0.20528,0.31281
0.039101,0.1955,0.1955,0.32258
0.039101,0.20528,0.22483,0.33236
0.058651,0.26393,0.24438,0.37146
0.058651,0.2737,0.21505,0.38123
0.048876,0.26393,0.21505,0.33236
0.048876,0.25415,0.20528,0.29326
0.039101,0.20528,0.18573,0.24438
0.029326,0.20528,0.1955,0.2737
0.029326,0.1955,0.2346,0.31281
0.029326,0.17595,0.21505,0.40078
0.01955,0.17595,0.20528,0.47898
0.01955,0.17595,0.21505,0.47898
0.01955,0.20528,0.2346,0.43988
0.01955,0.20528,0.20528,0.39101
0.01955,0.17595,0.1955,0.36168
0.029326,0.14663,0.20528,0.32258
0.029326,0.13685,0.20528,0.30303
0.029326,0.1173,0.20528,0.26393
0.029326,0.1173,0.1955,0.2346
0.029326,0.10753,0.17595,0.21505
0.039101,0.12708,0.20528,0.25415
0.048876,0.13685,0.1955,0.2737
0.039101,0.12708,0.17595,0.26393
0.029326,0.10753,0.1955,0.22483
0.039101,0.10753,0.22483,0.1955
0.039101,0.10753,0.20528,0.17595
0.029326,0.087977,0.20528,0.30303
0.029326,0.097752,0.22483,0.40078
0.029326,0.097752,0.35191,0.42033
0.029326,0.097752,0.61584,0.42033
0.039101,0.097752,0.70381,0.56696
0.039101,0.087977,0.97752,0.53763
0.039101,0.087977,0.97752,0.49853
0.039101,0.10753,0.92864,0.45943
0.039101,0.1173,0.83089,0.43988
0.039101,0.1173,0.73314,0.39101
0.039101,0.13685,0.62561,0.37146
0.029326,0.12708,0.58651,0.32258
0.029326,0.1173,0.60606,0.35191
0.039101,0.12708,0.52786,0.33236
0.048876,0.10753,0.45943,0.33236
0.058651,0.087977,0.43988,0.31281
0.078201,0.078201,0.43011,0.26393
0.078201,0.078201,0.41056,0.47898
0.078201,0.078201,0.42033,0.47898
0.068426,0.087977,0.37146,0.44966
0.078201,0.078201,0.32258,0.45943
0.068426,0.078201,0.30303,0.41056
0.058651,0.087977,0.31281,0.43011
0.058651,0.10753,0.32258,0.35191
0.078201,0.1173,0.28348,0.29326
0.078201,0.10753,0.25415,0.25415
0.10753,0.10753,0.2346,0.25415
0.12708,0.097752,0.20528,0.22483
0.12708,0.078201,0.18573,0.21505
0.17595,0.078201,0.16618,0.20528
0.18573,0.078201,0.17595,0.24438
0.21505,0.068426,0.1955,0.24438
0.21505,0.058651,0.1955,0.20528
0.18573,0.058651,0.2346,0.20528
0.1564,0.058651,0.22483,0.1955
0.13685,0.068426,0.20528,0.17595
0.10753,0.058651,0.18573,0.1564
0.097752,0.068426,0.17595,0.1564
0.078201,0.068426,0.17595,0.13685
0.087977,0.068426,0.14663,0.12708
0.10753,0.058651,0.14663,0.12708
0.13685,0.068426,0.13685,0.13685
0.14663,0.058651,0.13685,0.14663
0.1564,0.058651,0.1173,0.13685
0.12708,0.058651,0.10753,0.1564
0.17595,0.058651,0.1173,0.17595
0.1564,0.048876,0.1173,0.16618
0.13685,0.068426,0.1173,0.14663
0.10753,0.068426,0.12708,0.12708
0.1173,0.068426,0.12708,0.13685
0.16618,0.068426,0.1173,0.13685
0.17595,0.058651,0.097752,0.17595
0.1564,0.058651,0.087977,0.18573
0.14663,0.048876,0.097752,0.14663
0.14663,0.068426,0.087977,0.20528
0.1564,0.058651,0.078201,0.26393
0.18573,0.078201,0.087977,0.2737
0.17595,0.097752,0.12708,0.32258
0.14663,0.087977,0.16618,0.2737
0.12708,0.087977,0.1955,0.25415
0.13685,0.087977,0.20528,0.2346
0.16618,0.078201,0.18573,0.18573
0.1564,0.078201,0.17595,0.14663
0.14663,0.078201,0.17595,0.13685
0.12708,0.068426,0.1955,0.1173
0.13685,0.068426,0.1955,0.10753
0.1564,0.068426,0.16618,0.097752
0.18573,0.068426,0.16618,0.1173
0.18573,0.078201,0.17595,0.10753
0.16618,0.068426,0.1564,0.1173
0.16618,0.068426,0.14663,0.097752
0.16618,0.068426,0.13685,0.078201
0.17595,0.068426,0.12708,0.068426
0.21505,0.078201,0.12708,0.068426
0.24438,0.078201,0.10753,0.068426
0.25415,0.087977,0.087977,0.058651
0.2737,0.078201,0.1564,0.087977
1.2414,0.80156,1.0753,0.97752
1.0068,0.63539,0.84066,0.76246
0.80156,0.49853,0.67449,0.59629
0.65494,0.40078,0.53763,0.46921
0.75269,0.32258,0.43988,0.37146
0.72336,0.28348,0.35191,0.30303
0.69404,0.22483,0.28348,0.25415
0.64516,0.1955,0.2346,0.20528
0.73314,0.16618,0.1955,0.18573
0.66471,0.14663,0.16618,0.17595
0.56696,0.12708,0.13685,0.16618
0.51808,0.10753,0.12708,0.1955
0.46921,0.10753,0.1173,0.1955
0.47898,0.097752,0.097752,0.17595
0.41056,0.087977,0.097752,0.18573
0.36168,0.087977,0.078201,0.16618
0.35191,0.068426,0.078201,0.1564
0.38123,0.058651,0.078201,0.14663
0.37146,0.058651,0.078201,0.13685
0.37146,0.058651,0.078201,0.12708
0.36168,0.068426,0.10753,0.10753
0.31281,0.058651,0.10753,0.078201
0.25415,0.058651,0.10753,0.068426
0.20528,0.058651,0.10753,0.068426
0.18573,0.068426,0.097752,0.048876
0.16618,0.068426,0.097752,0.048876
0.16618,0.058651,0.087977,0.048876
0.1564,0.058651,0.078201,0.039101
0.13685,0.058651,0.068426,0.039101
0.1173,0.058651,0.068426,0.039101
0.10753,0.058651,0.078201,0.048876
0.087977,0.058651,0.068426,0.048876
0.1173,0.078201,0.078201,0.048876
0.097752,0.068426,0.097752,0.058651
0.10753,0.078201,0.078201,0.058651
0.097752,0.087977,0.068426,0.058651
0.087977,0.087977,0.068426,0.068426
0.087977,0.097752,0.058651,0.078201
0.087977,0.1173,0.068426,0.068426
0.078201,0.12708,0.068426,0.087977
0.1173,0.13685,0.068426,0.097752
0.097752,0.13685,0.078201,0.087977
0.097752,0.1564,0.078201,0.087977
0.078201,0.1564,0.087977,0.078201
0.068426,0.17595,0.097752,0.068426
0.068426,0.14663,0.087977,0.058651
0.058651,0.14663,0.078201,0.058651
0.10753,0.14663,0.068426,0.048876
0.10753,0.14663,0.078201,0.058651
0.097752,0.1564,0.058651,0.058651
0.087977,0.1564,0.058651,0.068426
0.087977,0.14663,0.058651,0.068426
0.1173,0.14663,0.058651,0.068426
0.13685,0.14663,0.068426,0.058651
0.13685,0.17595,0.068426,0.068426
0.12708,0.17595,0.10753,0.058651
0.13685,0.17595,0.13685,0.058651
0.1173,0.2346,0.13685,0.068426
0.10753,0.25415,0.10753,0.087977
0.10753,0.26393,0.10753,0.097752
0.14663,0.26393,0.12708,0.1173
0.14663,0.2737,0.17595,0.13685
0.1173,0.24438,0.21505,0.12708
0.087977,0.2737,0.28348,0.1173
0.078201,0.29326,0.34213,0.10753
0.058651,0.42033,0.32258,0.087977
0.048876,0.60606,0.30303,0.068426
0.039101,0.56696,0.2737,0.068426
0.048876,0.60606,0.2346,0.078201
0.078201,0.68426,0.21505,0.078201
0.087977,0.62561,0.17595,0.068426
0.097752,0.67449,0.1564,0.068426
0.10753,0.77224,0.1564,0.058651
0.10753,0.84066,0.1564,0.068426
0.12708,0.78201,0.17595,0.068426
0.12708,0.76246,0.16618,0.058651
0.12708,0.95797,0.17595,0.048876
0.097752,1.3685,0.16618,0.048876
0.078201,1.5543,0.17595,0.048876
0.068426,1.7302,0.1564,0.039101
0.058651,1.5836,0.14663,0.039101
0.048876,1.437,0.1564,0.039101
0.039101,1.3196,0.1564,0.048876
0.039101,1.2023,0.18573,0.068426
0.029326,1.2903,0.20528,0.087977
0.048876,1.1437,0.20528,0.068426
0.058651,1.2121,0.17595,0.058651
0.068426,1.1046,0.17595,0.048876
0.078201,0.94819,0.14663,0.048876
0.068426,0.77224,0.13685,0.048876
0.048876,0.65494,0.14663,0.039101
0.048876,0.56696,0.14663,0.068426
0.048876,0.52786,0.1564,0.048876
0.058651,0.45943,0.17595,0.058651
0.068426,0.44966,0.2346,0.068426
0.078201,0.42033,0.25415,0.068426
0.068426,0.35191,0.2737,0.078201
0.068426,0.32258,0.25415,0.087977
0.068426,0.31281,0.22483,0.097752
0.048876,0.30303,0.22483,0.097752
0.039101,0.24438,0.22483,0.078201
0.029326,0.20528,0.20528,0.087977
0.029326,0.1955,0.21505,0.14663
0.01955,0.21505,0.22483,0.24438
0.01955,0.2346,0.22483,0.21505
0.01955,0.30303,0.21505,0.25415
0.01955,0.37146,0.20528,0.34213
0.01955,0.42033,0.20528,0.40078
0.01955,0.37146,0.25415,0.38123
0.029326,0.36168,0.28348,0.32258
0.029326,0.40078,0.26393,0.2737
0.01955,0.43011,0.2737,0.2737
0.01955,0.46921,0.26393,0.2737
0.01955,0.50831,0.28348,0.29326
0.01955,0.49853,0.2737,0.29326
0.029326,0.44966,0.24438,0.29326
0.029326,0.37146,0.30303,0.29326
0.039101,0.33236,0.36168,0.30303
0.048876,0.2737,0.38123,0.29326
0.048876,0.2737,0.44966,0.28348
0.058651,0.2346,0.46921,0.28348
0.048876,0.2346,0.49853,0.25415
0.048876,0.22483,0.52786,0.28348
0.039101,0.20528,0.77224,0.30303
0.029326,0.18573,0.84066,0.31281
0.029326,0.17595,0.86022,0.32258
0.01955,0.20528,0.87977,0.29326
0.01955,0.25415,0.80156,0.29326
0.01955,0.25415,0.75269,0.31281
0.039101,0.21505,0.60606,0.2737
0.048876,0.18573,0.62561,0.26393
0.058651,0.16618,0.62561,0.26393
0.058651,0.1955,0.56696,0.32258
0.058651,0.24438,0.50831,0.30303
0.058651,0.32258,0.46921,0.33236
0.078201,0.32258,0.47898,0.41056
0.068426,0.29326,0.45943,0.38123
0.058651,0.26393,0.41056,0.32258
0.048876,0.21505,0.43011,0.29326
0.039101,0.18573,0.43988,0.25415
0.029326,0.1955,0.45943,0.22483
0.029326,0.20528,0.45943,0.2346
0.029326,0.21505,0.43988,0.22483
0.048876,0.1955,0.39101,0.20528
0.058651,0.18573,0.40078,0.18573
0.039101,0.16618,0.35191,0.1955
0.039101,0.16618,0.30303,0.2737
0.039101,0.1564,0.26393,0.31281
0.039101,0.14663,0.22483,0.39101
0.058651,0.13685,0.2346,0.40078
0.048876,0.1173,0.22483,0.49853
0.048876,0.1173,0.18573,0.60606
0.039101,0.10753,0.16618,0.73314
0.039101,0.10753,0.1564,0.68426
0.039101,0.10753,0.18573,0.58651
0.029326,0.087977,0.17595,0.55718
0.039101,0.10753,0.20528,0.50831
0.048876,0.12708,0.1955,0.44966
0.039101,0.14663,0.25415,0.38123
0.039101,0.16618,0.2737,0.38123
0.039101,0.17595,0.24438,0.39101
0.12708,0.18573,0.21505,0.44966
0.12708,0.1564,0.1955,0.45943
0.10753,0.13685,0.24438,0.47898
0.087977,0.1955,0.26393,0.40078
0.078201,0.17595,0.22483,0.34213
0.068426,0.17595,0.22483,0.28348
0.068426,0.16618,0.22483,0.39101
0.058651,0.14663,0.20528,0.43988
0.068426,0.12708,0.21505,0.40078
0.1173,0.1173,0.1955,0.39101
0.14663,0.10753,0.2346,0.34213
0.17595,0.097752,0.2737,0.2737
0.14663,0.078201,0.26393,0.24438
0.14663,0.097752,0.2346,0.24438
0.18573,0.087977,0.21505,0.22483
0.22483,0.097752,0.20528,0.21505
0.21505,0.078201,0.18573,0.1955
0.21505,0.078201,0.1564,0.16618
0.1955,0.078201,0.14663,0.16618
0.16618,0.068426,0.13685,0.18573
0.1564,0.058651,0.12708,0.21505
0.14663,0.058651,0.13685,0.21505
0.12708,0.058651,0.1564,0.18573
0.12708,0.068426,0.35191,0.18573
0.1173,0.058651,0.43988,0.16618
0.12708,0.058651,0.38123,0.13685
0.12708,0.048876,0.31281,0.12708
0.12708,0.058651,0.26393,0.13685
0.1173,0.048876,0.2346,0.16618
0.10753,0.048876,0.22483,0.1564
0.097752,0.048876,0.20528,0.13685
0.097752,0.039101,0.1955,0.12708
0.10753,0.048876,0.17595,0.14663
0.087977,0.058651,0.14663,0.17595
0.087977,0.058651,0.13685,0.18573
0.10753,0.048876,0.12708,0.21505
0.13685,0.048876,0.10753,0.21505
0.1564,0.048876,0.097752,0.20528
0.13685,0.048876,0.087977,0.17595
0.14663,0.058651,0.087977,0.1564
0.17595,0.048876,0.087977,0.16618
0.20528,0.039101,0.087977,0.1564
0.1955,0.039101,0.078201,0.13685
0.17595,0.048876,0.068426,0.10753
0.16618,0.058651,0.078201,0.097752
0.17595,0.048876,0.068426,0.078201
0.17595,0.039101,0.058651,0.078201
0.20528,0.048876,0.058651,0.087977
0.20528,0.048876,0.048876,0.10753
0.21505,0.058651,0.058651,0.12708
0.1955,0.068426,0.048876,0.1173
0.18573,0.097752,0.068426,0.097752
0.1955,0.087977,0.068426,0.087977
0.20528,0.087977,0.068426,0.087977
0.2346,0.087977,0.068426,0.097752
0.25415,0.097752,0.068426,0.097752
0.25415,0.087977,0.068426,0.097752
0.21505,0.068426,0.058651,0.097752
0.26393,0.058651,0.058651,0.087977
0.55718,0.058651,0.048876,0.078201
0.82111,0.048876,0.058651,0.068426
0.84066,0.058651,0.048876,0.068426
1.4076,0.048876,0.048876,0.058651
1.4174,0.048876,0.058651,0.058651
1.3978,0.058651,0.048876,0.078201
1.2121,0.058651,0.058651,0.068426
1.0068,0.068426,0.068426,0.068426
0.78201,0.058651,0.068426,0.078201
0.65494,0.058651,0.068426,0.068426
0.51808,0.058651,0.068426,0.068426
0.43988,0.068426,0.078201,0.068426
0.41056,0.068426,0.068426,0.068426
0.35191,0.058651,0.078201,0.068426
0.33236,0.068426,0.068426,0.068426
0.26393,0.058651,0.068426,0.058651
0.22483,0.058651,0.078201,0.048876
0.1955,0.058651,0.068426,0.048876
0.21505,0.078201,0.087977,0.048876
0.1955,0.087977,0.078201,0.058651
0.1564,0.078201,0.087977,0.048876
0.13685,0.078201,0.087977,0.039101
0.12708,0.087977,0.078201,0.039101
0.1173,0.087977,0.097752,0.039101
0.10753,0.087977,0.10753,0.039101
0.097752,0.078201,0.097752,0.048876
0.078201,0.078201,0.087977,0.048876
0.068426,0.078201,0.10753,0.048876
0.058651,0.078201,0.12708,0.048876
0.058651,0.087977,0.12708,0.048876
0.068426,0.087977,0.1173,0.039101
0.058651,0.097752,0.10753,0.029326
0.048876,0.097752,0.10753,0.029326
0.039101,0.097752,0.097752,0.039101
0.039101,0.097752,0.087977,0.039101
0.039101,0.097752,0.087977,0.029326
0.029326,0.087977,0.078201,0.029326
0.01955,0.10753,0.078201,0.039101
0.01955,0.097752,0.078201,0.039101
0.039101,0.097752,0.068426,0.048876
0.039101,0.097752,0.078201,0.039101
0.039101,0.10753,0.087977,0.039101
0.01955,0.10753,0.087977,0.039101
0.029326,0.10753,0.087977,0.048876
0.068426,0.1173,0.087977,0.048876
0.10753,0.1173,0.078201,0.058651
0.12708,0.1173,0.078201,0.048876
0.13685,0.1173,0.078201,0.048876
0.10753,0.1173,0.097752,0.039101
0.087977,0.1564,0.10753,0.058651
0.087977,0.17595,0.097752,0.078201
0.10753,0.18573,0.097752,0.10753
0.1173,0.20528,0.1173,0.1564
0.13685,0.21505,0.12708,0.18573
0.13685,0.21505,0.1173,0.17595
0.12708,0.2346,0.1955,0.1564
0.1173,0.20528,0.20528,0.14663
0.097752,0.1955,0.1955,0.13685
0.078201,0.18573,0.17595,0.13685
0.078201,0.16618,0.16618,0.1173
0.078201,0.17595,0.13685,0.1173
0.16618,0.21505,0.12708,0.097752
0.20528,0.24438,0.13685,0.097752
0.21505,0.21505,0.14663,0.10753
0.18573,0.2737,0.14663,0.12708
0.1564,0.37146,0.1564,0.12708
0.14663,0.47898,0.14663,0.14663
0.13685,0.70381,0.14663,0.16618
0.16618,0.75269,0.14663,0.17595
0.16618,0.86999,0.14663,0.1564
0.1564,0.81134,0.16618,0.12708
0.12708,0.87977,0.17595,0.10753
0.10753,1.0948,0.16618,0.097752
0.087977,1.1144,0.16618,0.1173
0.078201,1.0362,0.16618,0.10753
0.087977,0.92864,0.1564,0.097752
0.068426,0.99707,0.16618,0.097752
0.058651,1.3978,0.20528,0.1173
0.048876,1.3294,0.24438,0.097752
0.048876,1.1535,0.24438,0.087977
0.048876,1.0655,0.24438,0.087977
0.048876,1.085,0.21505,0.078201
0.039101,1.5249,0.20528,0.087977
0.039101,1.6422,0.2346,0.10753
0.029326,1.437,0.28348,0.10753
0.048876,1.6618,0.26393,0.10753
0.048876,1.7302,0.26393,0.078201
0.048876,1.5347,0.2737,0.068426
0.048876,1.4858,0.25415,0.078201
0.048876,1.349,0.2737,0.068426
0.048876,1.2023,0.2346,0.078201
0.058651,1.0459,0.26393,0.068426
0.058651,0.96774,0.24438,0.068426
0.058651,1.0753,0.22483,0.078201
0.048876,1.0948,0.22483,0.12708
0.039101,0.98729,0.21505,0.20528
0.039101,0.81134,0.21505,0.21505
0.029326,0.69404,0.2346,0.1955
0.01955,0.63539,0.21505,0.17595
0.01955,0.53763,0.21505,0.14663
0.01955,0.49853,0.21505,0.16618
0.029326,0.51808,0.22483,0.1564
0.058651,0.46921,0.22483,0.16618
0.068426,0.39101,0.22483,0.17595
0.078201,0.39101,0.24438,0.18573
0.068426,0.43011,0.22483,0.18573
0.048876,0.44966,0.21505,0.18573
0.048876,0.45943,0.1955,0.14663
0.048876,0.40078,0.20528,0.14663
0.058651,0.41056,0.20528,0.17595
0.068426,0.38123,0.22483,0.21505
0.068426,0.51808,0.22483,0.17595
0.068426,0.51808,0.22483,0.1564
0.068426,0.51808,0.1955,0.18573
0.068426,0.44966,0.31281,0.18573
0.058651,0.40078,0.49853,0.16618
0.048876,0.40078,0.55718,0.18573
0.048876,0.48876,0.69404,0.18573
0.048876,0.48876,0.74291,0.1955
0.048876,0.42033,0.68426,0.16618
0.048876,0.40078,0.84066,0.17595
0.058651,0.40078,0.95797,0.18573
0.048876,0.38123,0.84066,0.20528
0.048876,0.40078,0.80156,0.1955
0.048876,0.37146,0.70381,0.18573
0.039101,0.31281,0.60606,0.20528
0.048876,0.31281,0.54741,0.20528
0.039101,0.31281,0.46921,0.18573
0.039101,0.26393,0.43988,0.1955
0.029326,0.2346,0.40078,0.1955
0.039101,0.18573,0.39101,0.21505
0.039101,0.16618,0.35191,0.21505
0.058651,0.13685,0.32258,0.20528
0.087977,0.12708,0.30303,0.18573
0.097752,0.14663,0.2737,0.1564
0.078201,0.1564,0.29326,0.12708
0.068426,0.13685,0.28348,0.10753
0.058651,0.18573,0.2346,0.14663
0.048876,0.17595,0.20528,0.24438
0.048876,0.17595,0.20528,0.28348
0.1173,0.1955,0.18573,0.35191
0.1564,0.20528,0.16618,0.59629
0.17595,0.20528,0.12708,0.55718
0.17595,0.18573,0.10753,0.53763
0.13685,0.1564,0.10753,0.49853
0.12708,0.13685,0.1173,0.45943
0.1173,0.14663,0.12708,0.40078
0.1173,0.1564,0.1173,0.33236
0.12708,0.14663,0.097752,0.35191
0.10753,0.17595,0.097752,0.32258
0.087977,0.18573,0.087977,0.29326
0.097752,0.18573,0.087977,0.28348
0.087977,0.21505,0.087977,0.2346
0.097752,0.22483,0.097752,0.18573
0.10753,0.1955,0.10753,0.24438
0.10753,0.17595,0.12708,0.2346
0.10753,0.14663,0.14663,0.22483
0.10753,0.14663,0.14663,0.2346
0.13685,0.14663,0.1564,0.28348
0.13685,0.12708,0.16618,0.29326
0.13685,0.10753,0.20528,0.24438
0.13685,0.097752,0.28348,0.21505
0.14663,0.10753,0.30303,0.1955
0.25415,0.087977,0.26393,0.17595
0.29326,0.078201,0.29326,0.13685
0.2346,0.087977,0.36168,0.12708
0.20528,0.078201,0.37146,0.097752
0.1955,0.078201,0.34213,0.087977
0.20528,0.087977,0.32258,0.078201
0.1955,0.078201,0.33236,0.068426
0.17595,0.078201,0.29326,0.058651
0.16618,0.078201,0.25415,0.048876
0.14663,0.068426,0.21505,0.039101
0.1564,0.087977,0.17595,0.058651
0.14663,0.087977,0.16618,0.058651
0.18573,0.097752,0.16618,0.048876
0.20528,0.087977,0.17595,0.029326
0.20528,0.087977,0.1564,0.029326
0.17595,0.097752,0.13685,0.029326
0.1955,0.087977,0.16618,0.048876
0.21505,0.078201,0.22483,0.10753
0.20528,0.078201,0.29326,0.087977
0.22483,0.058651,0.38123,0.1173
0.25415,0.058651,0.42033,0.10753
0.24438,0.058651,0.35191,0.097752
0.2346,0.058651,0.31281,0.10753
0.2346,0.048876,0.2737,0.10753
0.22483,0.058651,0.2346,0.097752
0.1955,0.068426,0.21505,0.087977
0.17595,0.078201,0.18573,0.087977
0.16618,0.087977,0.16618,0.087977
0.14663,0.097752,0.16618,0.078201
0.16618,0.087977,0.1564,0.078201
0.2346,0.078201,0.14663,0.078201
0.35191,0.068426,0.13685,0.068426
0.34213,0.068426,0.1173,0.048876
0.37146,0.068426,0.1173,0.039101
0.60606,0.068426,0.10753,0.048876
0.66471,0.068426,0.087977,0.048876
0.55718,0.068426,0.078201,0.048876
0.55718,0.068426,0.078201,0.039101
0.45943,0.087977,0.078201,0.048876
0.42033,0.087977,0.068426,0.058651
0.38123,0.087977,0.058651,0.068426
0.32258,0.087977,0.058651,0.058651
0.30303,0.087977,0.048876,0.048876
0.28348,0.097752,0.058651,0.048876
0.24438,0.087977,0.048876,0.048876
0.2346,0.087977,0.048876,0.039101
0.2346,0.087977,0.048876,0.058651
0.1955,0.1173,0.048876,0.068426
0.17595,0.1173,0.039101,0.068426
0.14663,0.10753,0.058651,0.058651
0.18573,0.10753,0.058651,0.048876
0.16618,0.12708,0.068426,0.048876
0.14663,0.13685,0.058651,0.048876
0.14663,0.17595,0.058651,0.039101
0.14663,0.16618,0.068426,0.039101
0.13685,0.1564,0.068426,0.029326
0.13685,0.14663,0.058651,0.029326
0.10753,0.12708,0.058651,0.01955
0.097752,0.1173,0.058651,0.01955
0.087977,0.10753,0.058651,0.029326
0.087977,0.10753,0.058651,0.039101
0.087977,0.087977,0.058651,0.048876
0.068426,0.10753,0.068426,0.058651
0.058651,0.10753,0.078201,0.058651
0.048876,0.10753,0.078201,0.048876
0.048876,0.1173,0.078201,0.048876
0.039101,0.12708,0.078201,0.039101
0.029326,0.13685,0.078201,0.039101
0.029326,0.1173,0.068426,0.039101
0.029326,0.1173,0.078201,0.039101
0.01955,0.10753,0.078201,0.039101
0.01955,0.1173,0.068426,0.029326
0.029326,0.10753,0.078201,0.039101
0.029326,0.1173,0.078201,0.039101
0.039101,0.1173,0.078201,0.039101
0.039101,0.1173,0.068426,0.039101
0.039101,0.12708,0.068426,0.068426
0.048876,0.12708,0.068426,0.087977
0.058651,0.1173,0.058651,0.078201
0.078201,0.13685,0.058651,0.12708
0.078201,0.16618,0.058651,0.1564
0.097752,0.1564,0.068426,0.1564
0.14663,0.1564,0.058651,0.1564
0.16618,0.16618,0.058651,0.16618
0.1564,0.16618,0.048876,0.1564
0.1564,0.1564,0.048876,0.1564
0.16618,0.1564,0.048876,0.14663
0.14663,0.1564,0.058651,0.14663
0.13685,0.16618,0.058651,0.14663
0.13685,0.17595,0.068426,0.13685
0.13685,0.18573,0.058651,0.1173
0.1173,0.20528,0.048876,0.097752
0.10753,0.1955,0.058651,0.078201
0.087977,0.18573,0.058651,0.068426
0.097752,0.1955,0.058651,0.058651
0.10753,0.1955,0.058651,0.058651
0.14663,0.20528,0.048876,0.048876
0.16618,0.18573,0.048876,0.058651
0.17595,0.18573,0.048876,0.058651
0.16618,0.17595,0.058651,0.039101
0.1564,0.18573,0.058651,0.048876
0.12708,0.21505,0.058651,0.039101
0.14663,0.2346,0.058651,0.039101
0.1564,0.2346,0.048876,0.039101
0.1564,0.28348,0.058651,0.048876
0.17595,0.43011,0.048876,0.039101
0.14663,0.45943,0.058651,0.039101
0.1564,0.44966,0.058651,0.058651
0.14663,0.52786,0.048876,0.087977
0.12708,0.53763,0.068426,0.12708
0.12708,0.57674,0.10753,0.14663
0.10753,0.94819,0.097752,0.12708
0.078201,1.9844,0.097752,0.10753
0.068426,2.2581,0.12708,0.1173
0.048876,1.8084,0.13685,0.10753
0.058651,1.3978,0.13685,0.10753
0.068426,1.9941,0.16618,0.087977
0.078201,2.6882,0.1564,0.078201
0.068426,2.522,0.13685,0.087977
0.068426,2.2483,0.1173,0.10753
0.068426,2.2678,0.10753,0.097752
0.058651,2.4438,0.1173,0.078201
0.048876,2.1603,0.13685,0.068426
0.039101,2.2092,0.1564,0.068426
0.039101,2.5513,0.21505,0.068426
0.029326,2.1114,0.2737,0.058651
0.029326,1.8964,0.2737,0.058651
0.01955,2.0137,0.2346,0.058651
0.01955,1.7986,0.22483,0.048876
0.029326,1.8377,0.2346,0.048876
0.01955,1.5445,0.22483,0.039101
0.029326,1.2805,0.22483,0.048876
0.029326,1.0362,0.21505,0.058651
0.029326,0.86022,0.20528,0.048876
0.01955,0.77224,0.18573,0.048876
0.029326,0.68426,0.16618,0.048876
0.029326,0.60606,0.16618,0.068426
0.029326,0.53763,0.17595,0.1173
0.01955,0.48876,0.1955,0.14663
0.01955,0.51808,0.17595,0.21505
0.039101,0.54741,0.17595,0.36168
0.039101,0.48876,0.18573,0.36168
0.029326,0.44966,0.18573,0.33236
0.01955,0.38123,0.18573,0.29326
0.01955,0.32258,0.17595,0.24438
0.01955,0.32258,0.1564,0.22483
0.01955,0.48876,0.17595,0.22483
0.0097752,0.51808,0.17595,0.22483
0.0097752,0.64516,0.20528,0.26393
0.0097752,1.0166,0.22483,0.24438
0.0097752,1.0362,0.22483,0.20528
0.01955,1.3392,0.22483,0.1955
0.029326,2.5904,0.21505,0.21505
0.039101,3.3431,0.21505,0.2346
0.048876,3.0596,0.1955,0.21505
0.048876,2.7664,0.1955,0.20528
0.048876,2.3265,0.20528,0.1955
0.048876,1.9941,0.21505,0.18573
0.058651,1.8573,0.18573,0.1564
0.048876,1.6129,0.20528,0.1955
0.048876,1.2805,0.21505,0.17595
0.048876,1.085,0.20528,0.2346
0.048876,0.96774,0.26393,0.22483
0.058651,0.80156,0.25415,0.20528
0.058651,0.64516,0.22483,0.18573
0.058651,0.55718,0.21505,0.17595
0.058651,0.49853,0.22483,0.14663
0.058651,0.44966,0.24438,0.13685
0.048876,0.41056,0.28348,0.1564
0.048876,0.37146,0.26393,0.1564
0.039101,0.34213,0.28348,0.1564
0.029326,0.37146,0.29326,0.14663
0.029326,0.40078,0.35191,0.18573
0.039101,0.41056,0.42033,0.18573
0.039101,0.36168,0.66471,0.21505
0.048876,0.37146,0.75269,0.20528
0.048876,0.40078,0.80156,0.18573
0.039101,0.36168,0.75269,0.17595
0.048876,0.35191,0.66471,0.1564
0.068426,0.33236,0.79179,0.16618
0.097752,0.30303,0.83089,0.16618
0.12708,0.25415,0.88954,0.1564
0.1173,0.22483,0.89932,0.14663
0.1173,0.1955,0.82111,0.16618
0.20528,0.16618,0.73314,0.14663
0.26393,0.14663,0.67449,0.12708
0.29326,0.12708,0.57674,0.1173
0.28348,0.10753,0.49853,0.16618
0.22483,0.10753,0.45943,0.29326
0.1955,0.097752,0.41056,0.45943
0.20528,0.10753,0.46921,0.56696
0.18573,0.10753,0.44966,0.61584
0.14663,0.12708,0.47898,0.73314
0.14663,0.16618,0.43988,0.65494
0.13685,0.20528,0.43011,0.66471
0.1173,0.22483,0.38123,0.65494
0.087977,0.20528,0.39101,0.63539
0.068426,0.17595,0.39101,0.58651
0.058651,0.14663,0.36168,0.48876
0.058651,0.1564,0.31281,0.39101
0.058651,0.14663,0.26393,0.39101
0.097752,0.13685,0.30303,0.47898
0.12708,0.12708,0.29326,0.43011
0.12708,0.1173,0.24438,0.34213
0.1173,0.10753,0.24438,0.39101
0.1173,0.087977,0.24438,0.91887
0.10753,0.087977,0.2346,1.3196
0.12708,0.097752,0.2346,1.1926
0.1564,0.097752,0.2737,1.0068
0.17595,0.087977,0.31281,0.80156
0.1564,0.087977,0.33236,0.65494
0.12708,0.078201,0.28348,0.78201
0.1173,0.068426,0.28348,0.67449
0.10753,0.078201,0.30303,0.67449
0.10753,0.078201,0.28348,0.60606
0.097752,0.078201,0.26393,0.56696
0.097752,0.087977,0.22483,0.57674
0.097752,0.068426,0.28348,0.56696
0.087977,0.078201,0.32258,0.54741
0.097752,0.078201,0.35191,0.43988
0.087977,0.078201,0.43011,0.39101
0.18573,0.087977,0.45943,0.32258
0.1955,0.078201,0.40078,0.24438
0.1955,0.078201,0.34213,0.22483
0.17595,0.078201,0.35191,0.1955
0.14663,0.068426,0.33236,0.25415
0.13685,0.058651,0.33236,0.46921
0.12708,0.058651,0.36168,0.52786
0.1173,0.068426,0.32258,0.49853
0.10753,0.068426,0.26393,0.45943
0.13685,0.078201,0.22483,0.43011
0.16618,0.078201,0.1955,0.45943
0.1564,0.087977,0.17595,0.44966
0.1564,0.10753,0.14663,0.57674
0.14663,0.097752,0.12708,0.74291
0.12708,0.087977,0.1173,0.64516
0.12708,0.097752,0.1173,0.66471
0.12708,0.097752,0.10753,0.55718
0.14663,0.087977,0.097752,0.56696
0.1173,0.087977,0.10753,0.57674
0.1173,0.097752,0.10753,0.72336
0.13685,0.078201,0.087977,0.83089
0.14663,0.078201,0.078201,0.78201
0.13685,0.087977,0.068426,0.69404
0.1564,0.087977,0.068426,0.59629
0.14663,0.087977,0.078201,0.62561
0.13685,0.087977,0.078201,0.62561
0.18573,0.087977,0.078201,0.50831
0.2346,0.087977,0.087977,0.42033
0.2737,0.078201,0.087977,0.33236
0.36168,0.087977,0.097752,0.31281
0.42033,0.078201,0.10753,0.2737
0.36168,0.078201,0.10753,0.28348
0.37146,0.078201,0.097752,0.2737
0.53763,0.087977,0.13685,0.29326
0.61584,0.097752,0.17595,0.30303
1.0068,0.097752,0.20528,0.25415
0.92864,0.097752,0.25415,0.25415
0.77224,0.097752,0.24438,0.2346
0.65494,0.087977,0.26393,0.21505
