0.097752,0.029326,0.0097752,0.01955
0.54741,1.7889,3.0792,0.20528
0.43988,1.4076,2.4438,0.28348
0.36168,1.1046,1.9453,0.31281
0.30303,0.86022,1.5445,0.33236
0.24438,0.67449,1.2512,0.31281
0.20528,0.52786,1.0459,0.25415
0.18573,0.42033,0.85044,0.21505
0.1564,0.32258,0.71359,0.17595
0.13685,0.25415,0.57674,0.14663
0.10753,0.1955,0.47898,0.1173
0.087977,0.1564,0.40078,0.097752
0.078201,0.12708,0.34213,0.078201
0.068426,0.097752,0.31281,0.068426
0.058651,0.068426,0.28348,0.058651
0.048876,0.048876,0.24438,0.048876
0.039101,0.039101,0.2346,0.039101
0.029326,0.029326,0.21505,0.029326
0.029326,0.01955,0.20528,0.029326
0.01955,0.01955,0.22483,0.01955
0.01955,0.0097752,0.2346,0.01955
0.0097752,0,0.21505,0.01955
0.0097752,0.0097752,0.28348,0.0097752
0.0097752,0,0.25415,0.0097752
0.0097752,0,0.22483,0.0097752
0.0097752,0,0.21505,0.0097752
0.0097752,0,0.18573,0
0.0097752,0,0.16618,0.0097752
0.0097752,0,0.14663,0
0.0097752,0,0.14663,0
0.029326,0,0.1564,0
0.029326,0,0.14663,0
0.048876,0,0.1564,0
0.039101,0,0.14663,0
0.029326,0,0.1564,0
0.029326,0,0.14663,0
0.029326,0,0.17595,0
0.029326,0,0.1564,0.0097752
0.01955,0,0.1564,0
0.029326,0,0.14663,0
0.01955,0,0.14663,0
0.01955,0,0.13685,0
0.048876,0,0.14663,0
0.039101,0,0.1564,0
0.039101,0,0.13685,0.0097752
0.029326,0,0.14663,0.0097752
0.029326,0,0.1564,0
0.01955,0,0.1564,0
0.01955,0,0.17595,0
0.029326,0,0.18573,0
0.01955,0,0.16618,0
0.0097752,0,0.16618,0
0.0097752,0,0.17595,0
0.0097752,0,0.1564,0
0.0097752,0,0.1564,0
0.0097752,0,0.18573,0
0.0097752,0,0.17595,0
0.01955,0,0.17595,0
0.01955,0,0.1564,0
0.0097752,0,0.18573,0
0.0097752,0,0.1955,0
0.0097752,0,0.18573,0
0.0097752,0,0.20528,0
0.0097752,0,0.18573,0
0.0097752,0,0.20528,0
0.0097752,0,0.1955,0
0.0097752,0,0.21505,0
0.0097752,0,0.2346,0
0.0097752,0,0.22483,0.0097752
0.0097752,0,0.22483,0
0.0097752,0,0.22483,0
0.0097752,0,0.20528,0
0,0,0.1955,0
0.0097752,0,0.22483,0.0097752
0.0097752,0,0.20528,0.0097752
0.0097752,0,0.24438,0.01955
0,0,0.21505,0.029326
0.0097752,0,0.21505,0.01955
0.0097752,0,0.21505,0.01955
0.0097752,0,0.20528,0.029326
0.0097752,0,0.20528,0.039101
0.0097752,0,0.21505,0.039101
0.0097752,0,0.20528,0.058651
0.0097752,0,0.20528,0.058651
0.0097752,0,0.20528,0.048876
0,0,0.1955,0.048876
0,0,0.18573,0.058651
0.01955,0,0.16618,0.058651
0.029326,0,0.17595,0.048876
0.01955,0,0.1564,0.048876
0.01955,0,0.16618,0.058651
0.01955,0,0.1564,0.068426
0.01955,0,0.14663,0.078201
0.01955,0,0.13685,0.097752
0.0097752,0,0.14663,0.087977
0.0097752,0,0.17595,0.087977
0.01955,0,0.14663,0.097752
0.0097752,0,0.14663,0.10753
0.0097752,0,0.1564,0.10753
0.0097752,0,0.14663,0.1173
0.0097752,0,0.14663,0.1173
0.0097752,0,0.14663,0.13685
0.0097752,0,0.14663,0.13685
0.0097752,0,0.13685,0.12708
0.0097752,0,0.1173,0.12708
0.0097752,0,0.10753,0.10753
0.0097752,0,0.10753,0.097752
0.0097752,0,0.10753,0.097752
0.0097752,0,0.097752,0.087977
0.01955,0,0.10753,0.078201
0.01955,0,0.097752,0.068426
0.01955,0,0.097752,0.058651
0.01955,0,0.097752,0.058651
0.0097752,0,0.10753,0.068426
0.0097752,0,0.12708,0.068426
0.0097752,0,0.10753,0.068426
0.0097752,0,0.1173,0.058651
0.0097752,0,0.1173,0.048876
0.0097752,0,0.1173,0.039101
0.0097752,0,0.12708,0.029326
0.0097752,0,0.1173,0.029326
0.0097752,0,0.10753,0.029326
0.01955,0,0.10753,0.01955
0.0097752,0,0.10753,0.01955
0.0097752,0,0.1173,0.01955
0.0097752,0,0.10753,0.01955
0.0097752,0,0.10753,0.0097752
0.0097752,0,0.1173,0.0097752
0.0097752,0,0.12708,0.0097752
0.0097752,0,0.12708,0.0097752
0.0097752,0,0.1173,0
0.0097752,0,0.10753,0
0.01955,0,0.10753,0
0.01955,0,0.10753,0
0.0097752,0,0.097752,0
0.0097752,0,0.087977,0
0.01955,0,0.097752,0
0.01955,0,0.10753,0
0.01955,0,0.087977,0
0.01955,0,0.10753,0
0.01955,0,0.097752,0
0.0097752,0,0.097752,0
0.01955,0,0.10753,0
0.01955,0,0.087977,0
0.029326,0,0.078201,0
0.029326,0,0.10753,0
0.039101,0,0.087977,0.0097752
0.048876,0,0.078201,0.01955
0.048876,0,0.097752,0.0097752
0.039101,0,0.087977,0.01955
0.039101,0,0.10753,0.029326
0.048876,0,0.1173,0.048876
0.048876,0,0.12708,0.039101
0.048876,0,0.1173,0.039101
0.058651,0,0.10753,0.039101
0.058651,0,0.1173,0.039101
0.058651,0,0.10753,0.029326
0.048876,0,0.087977,0.039101
0.039101,0,0.12708,0.029326
0.048876,0,0.1173,0.029326
0.048876,0,0.1173,0.01955
0.048876,0,0.10753,0.01955
0.048876,0,0.12708,0.0097752
0.058651,0,0.12708,0.0097752
0.058651,0,0.13685,0.01955
0.058651,0,0.1173,0.029326
0.068426,0,0.1173,0.01955
0.068426,0,0.1173,0.0097752
0.058651,0,0.1173,0.0097752
0.058651,0,0.10753,0.0097752
0.068426,0,0.097752,0.0097752
0.078201,0,0.097752,0.0097752
0.078201,0,0.097752,0.0097752
0.087977,0,0.087977,0.0097752
0.078201,0,0.078201,0.0097752
0.087977,0,0.087977,0.0097752
0.087977,0,0.078201,0
0.097752,0,0.068426,0.0097752
0.12708,0,0.078201,0.0097752
0.10753,0,0.087977,0.0097752
0.097752,0,0.087977,0.01955
0.087977,0,0.078201,0.01955
0.087977,0,0.078201,0.029326
0.068426,0,0.068426,0.029326
0.087977,0,0.078201,0.029326
0.097752,0,0.087977,0.039101
0.078201,0,0.087977,0.029326
0.068426,0,0.078201,0.029326
0.058651,0,0.068426,0.01955
0.048876,0,0.087977,0.01955
0.048876,0,0.087977,0.0097752
0.039101,0,0.087977,0.0097752
0.039101,0,0.087977,0.0097752
0.039101,0,0.087977,0.0097752
0.039101,0,0.087977,0.01955
0.039101,0,0.068426,0.01955
0.039101,0,0.087977,0.0097752
0.029326,0,0.078201,0.01955
0.029326,0,0.078201,0.01955
0.01955,0,0.078201,0.01955
0.029326,0,0.078201,0.029326
0.01955,0,0.078201,0.01955
0.01955,0,0.078201,0.029326
0.01955,0,0.078201,0.029326
0.01955,0,0.087977,0.01955
0.01955,0,0.078201,0.01955
0.01955,0,0.078201,0.01955
0.0097752,0,0.078201,0.0097752
0.01955,0,0.087977,0.01955
0.01955,0,0.097752,0.01955
0.0097752,0,0.10753,0.0097752
0.0097752,0,0.12708,0.0097752
0.0097752,0,0.13685,0.0097752
0.0097752,0,0.14663,0.0097752
0.0097752,0,0.16618,0
0.0097752,0,0.1955,0
0.0097752,0,0.20528,0
0.0097752,0,0.1955,0
0.0097752,0,0.20528,0
0.01955,0,0.18573,0
0.01955,0,0.18573,0
0.01955,0,0.16618,0
0.01955,0,0.20528,0
0.029326,0,0.18573,0
0.029326,0,0.2346,0
0.039101,0,0.20528,0
0.029326,0,0.18573,0
0.01955,0,0.1955,0
0.01955,0,0.17595,0.01955
0.0097752,0,0.14663,0.029326
0.0097752,0,0.1564,0.029326
0.0097752,0,0.14663,0.039101
0.0097752,0,0.14663,0.048876
0.0097752,0,0.13685,0.039101
0.0097752,0,0.14663,0.048876
0,0,0.16618,0.068426
0,0,0.18573,0.068426
0,0,0.17595,0.068426
0,0,0.17595,0.058651
0,0,0.16618,0.058651
0,0,0.1564,0.048876
0,0,0.1564,0.048876
0,0,0.1564,0.048876
0.0097752,0,0.1564,0.048876
0.0097752,0,0.13685,0.039101
0.01955,0,0.14663,0.039101
0.01955,0,0.16618,0.039101
0.01955,0,0.1564,0.039101
0.01955,0,0.1564,0.039101
0.01955,0,0.13685,0.048876
0.01955,0,0.13685,0.068426
0.0097752,0,0.13685,0.058651
0.0097752,0,0.13685,0.068426
0.0097752,0,0.13685,0.068426
0.0097752,0,0.14663,0.068426
0.0097752,0,0.14663,0.068426
0.0097752,0,0.1564,0.058651
0.01955,0,0.14663,0.058651
0.01955,0,0.13685,0.058651
0.01955,0,0.12708,0.068426
0.01955,0,0.10753,0.068426
0.029326,0,0.097752,0.068426
0.01955,0,0.097752,0.078201
0.01955,0,0.097752,0.078201
0.0097752,0,0.087977,0.078201
0.0097752,0,0.097752,0.078201
0.0097752,0,0.12708,0.087977
0.0097752,0,0.13685,0.078201
0.01955,0,0.13685,0.078201
0.0097752,0,0.12708,0.068426
0.0097752,0,0.17595,0.058651
0.0097752,0,0.16618,0.058651
0.0097752,0,0.17595,0.048876
0.0097752,0,0.20528,0.048876
0.0097752,0,0.18573,0.048876
0.0097752,0,0.1955,0.048876
0.01955,0,0.22483,0.048876
0.01955,0,0.21505,0.039101
0.0097752,0,0.20528,0.029326
0.0097752,0,0.22483,0.029326
0.01955,0,0.1955,0.029326
0.01955,0,0.1955,0.029326
0.01955,0,0.17595,0.01955
0.01955,0,0.1564,0.029326
0.0097752,0,0.12708,0.01955
0.0097752,0,0.13685,0.0097752
0.0097752,0,0.12708,0.0097752
0.0097752,0,0.1173,0.0097752
0.0097752,0,0.097752,0.0097752
0.0097752,0,0.087977,0.0097752
0.0097752,0,0.087977,0.0097752
0.0097752,0,0.068426,0.0097752
0.01955,0,0.068426,0
0.0097752,0,0.068426,0
0.0097752,0,0.097752,0
0.0097752,0,0.1173,0
0.0097752,0,0.1173,0
0.0097752,0,0.1173,0
0.0097752,0,0.10753,0
0.0097752,0,0.10753,0
0.0097752,0,0.10753,0
0.0097752,0,0.1173,0
0.0097752,0,0.1173,0
0.0097752,0,0.12708,0
0.0097752,0,0.10753,0
0.0097752,0,0.10753,0
0.0097752,0,0.087977,0
0.0097752,0,0.10753,0
0.0097752,0,0.087977,0
0.0097752,0,0.10753,0
0.0097752,0,0.1173,0
0.01955,0,0.10753,0
0.01955,0,0.1173,0
0.01955,0,0.1173,0
0.01955,0,0.10753,0
0.01955,0,0.097752,0
0.01955,0,0.10753,0
0.029326,0,0.097752,0
0.039101,0,0.087977,0
0.039101,0,0.097752,0
0.039101,0,0.097752,0.0097752
0.039101,0,0.097752,0.0097752
0.039101,0,0.097752,0.0097752
0.039101,0,0.097752,0.0097752
0.029326,0,0.087977,0.0097752
0.029326,0,0.087977,0
0.048876,0,0.087977,0
0.048876,0,0.078201,0
0.048876,0,0.078201,0
0.039101,0,0.068426,0.0097752
0.039101,0,0.068426,0.0097752
0.039101,0,0.058651,0.0097752
0.039101,0,0.078201,0.0097752
0.039101,0,0.068426,0.0097752
0.058651,0,0.058651,0.0097752
0.068426,0,0.058651,0.0097752
0.068426,0,0.048876,0.0097752
0.058651,0,0.068426,0
0.068426,0,0.068426,0
0.058651,0,0.058651,0
0.058651,0,0.078201,0
0.058651,0,0.078201,0
0.058651,0,0.058651,0.0097752
0.058651,0,0.087977,0.048876
0.068426,0,0.087977,0.039101
0.068426,0,0.078201,0.029326
0.078201,0,0.068426,0.01955
0.087977,0,0.068426,0.0097752
0.087977,0,0.058651,0.0097752
0.087977,0,0.039101,0.0097752
0.087977,0,0.058651,0.01955
0.078201,0,0.048876,0.01955
0.097752,0,0.048876,0.01955
0.087977,0,0.048876,0.01955
0.097752,0,0.058651,0.0097752
0.087977,0,0.058651,0.0097752
0.087977,0,0.048876,0.0097752
0.097752,0,0.048876,0
0.097752,0,0.058651,0
0.13685,0,0.068426,0
0.1173,0,0.058651,0
0.10753,0,0.058651,0
0.10753,0,0.058651,0
0.10753,0,0.058651,0
0.10753,0,0.048876,0
0.097752,0,0.068426,0
0.087977,0,0.068426,0.0097752
0.087977,0,0.068426,0.029326
0.097752,0,0.068426,0.029326
0.097752,0,0.078201,0.029326
0.097752,0,0.068426,0.01955
0.087977,0,0.068426,0.01955
0.078201,0,0.068426,0.0097752
0.068426,0,0.058651,0.0097752
0.058651,0,0.048876,0.01955
0.058651,0,0.058651,0.029326
0.048876,0,0.048876,0.029326
0.039101,0,0.048876,0.029326
0.029326,0,0.048876,0.01955
0.039101,0,0.068426,0.029326
0.039101,0,0.068426,0.039101
0.029326,0,0.058651,0.029326
0.029326,0,0.068426,0.029326
0.01955,0,0.068426,0.029326
0.01955,0,0.068426,0.01955
0.01955,0,0.068426,0.0097752
0.0097752,0,0.068426,0.0097752
0.01955,0,0.078201,0.0097752
0.01955,0,0.078201,0.0097752
0.01955,0,0.068426,0.0097752
0.0097752,0,0.068426,0.0097752
0.0097752,0,0.058651,0.0097752
0.01955,0,0.058651,0.0097752
0.01955,0,0.058651,0.0097752
0.01955,0,0.068426,0
0.01955,0,0.058651,0
0.01955,0,0.058651,0
0.029326,0,0.068426,0
0.087977,0,0.078201,0
0.078201,0,0.097752,0
0.068426,0,0.087977,0
0.058651,0,0.097752,0
0.048876,0,0.10753,0
0.039101,0,0.097752,0
0.039101,0,0.10753,0
0.039101,0,0.097752,0
0.029326,0,0.10753,0
0.039101,0,0.1173,0
0.029326,0,0.1173,0
0.029326,0,0.1173,0
0.01955,0,0.10753,0
0.01955,0,0.10753,0
0.0097752,0,0.097752,0
0.0097752,0,0.097752,0.0097752
0.0097752,0,0.087977,0.0097752
0.0097752,0,0.087977,0.0097752
0.0097752,0,0.097752,0.01955
0.0097752,0,0.097752,0.01955
0,0,0.087977,0.01955
0.0097752,0,0.087977,0.0097752
0.0097752,0,0.10753,0.01955
0.0097752,0,0.097752,0.01955
0.0097752,0,0.097752,0.01955
0.0097752,0,0.087977,0.01955
0.0097752,0,0.10753,0.029326
0.01955,0,0.097752,0.01955
0.01955,0,0.097752,0.01955
0.0097752,0,0.087977,0.01955
0.0097752,0,0.097752,0.029326
0.0097752,0,0.097752,0.029326
0.01955,0,0.10753,0.039101
0.01955,0,0.10753,0.029326
0.0097752,0,0.10753,0.039101
0.0097752,0,0.10753,0.039101
0.0097752,0,0.087977,0.039101
0.0097752,0,0.078201,0.097752
0.0097752,0,0.078201,0.087977
0.01955,0,0.078201,0.097752
0.01955,0,0.068426,0.087977
0.01955,0,0.078201,0.078201
0.01955,0,0.068426,0.068426
0.01955,0,0.068426,0.068426
0.0097752,0,0.078201,0.068426
0.0097752,0,0.078201,0.068426
0.0097752,0,0.087977,0.068426
0.0097752,0,0.087977,0.068426
0.0097752,0,0.087977,0.068426
0.01955,0,0.087977,0.078201
0.01955,0,0.087977,0.10753
0.01955,0,0.078201,0.1173
0.0097752,0,0.078201,0.10753
0.0097752,0,0.097752,0.097752
0.0097752,0,0.097752,0.097752
0.0097752,0,0.097752,0.097752
0.0097752,0,0.087977,0.087977
0.0097752,0,0.087977,0.087977
0.0097752,0,0.097752,0.078201
0.0097752,0,0.087977,0.078201
0.0097752,0,0.097752,0.068426
0.0097752,0,0.097752,0.058651
0.0097752,0,0.097752,0.058651
0.0097752,0,0.097752,0.048876
0.0097752,0,0.10753,0.039101
0.0097752,0,0.097752,0.029326
0.0097752,0,0.097752,0.039101
0.0097752,0,0.097752,0.068426
0.01955,0,0.097752,0.068426
0.01955,0,0.10753,0.068426
0.0097752,0,0.097752,0.058651
0.01955,0,0.087977,0.058651
0.01955,0,0.097752,0.039101
0.01955,0,0.10753,0.058651
0.029326,0,0.1173,0.058651
0.01955,0,0.12708,0.048876
0.039101,0,0.13685,0.048876
0.029326,0,0.12708,0.039101
0.029326,0,0.14663,0.039101
0.039101,0,0.13685,0.039101
0.029326,0,0.12708,0.039101
0.029326,0,0.1173,0.039101
0.01955,0,0.1173,0.029326
0.01955,0,0.10753,0.029326
0.01955,0,0.1173,0.01955
0.01955,0,0.1173,0.01955
0.029326,0,0.12708,0.01955
0.029326,0,0.1173,0.029326
0.029326,0,0.12708,0.029326
0.029326,0,0.12708,0.039101
0.029326,0,0.10753,0.029326
0.029326,0,0.097752,0.01955
0.01955,0,0.097752,0.01955
0.039101,0,0.087977,0.01955
0.039101,0,0.078201,0.0097752
0.039101,0,0.087977,0.0097752
0.039101,0,0.087977,0.0097752
0.048876,0,0.087977,0
0.048876,0,0.087977,0.0097752
0.058651,0,0.078201,0.0097752
0.058651,0,0.078201,0
0.058651,0,0.078201,0
0.058651,0,0.087977,0
0.068426,0,0.078201,0
0.068426,0,0.078201,0
0.068426,0,0.078201,0
0.068426,0,0.068426,0
0.058651,0,0.058651,0
0.058651,0,0.068426,0
0.048876,0,0.068426,0
0.078201,0,0.068426,0
0.068426,0,0.068426,0.0097752
0.068426,0,0.058651,0.0097752
0.078201,0,0.048876,0.0097752
0.078201,0,0.058651,0.0097752
0.068426,0,0.048876,0.029326
0.058651,0,0.048876,0.048876
0.058651,0,0.048876,0.039101
0.068426,0,0.058651,0.029326
0.078201,0,0.048876,0.01955
0.097752,0,0.048876,0.01955
0.087977,0,0.048876,0.01955
0.087977,0,0.048876,0.0097752
0.097752,0,0.048876,0.0097752
0.1173,0,0.048876,0.0097752
0.10753,0,0.048876,0.0097752
0.1173,0,0.048876,0
0.14663,0,0.048876,0
0.12708,0,0.048876,0
0.10753,0,0.048876,0
0.12708,0,0.048876,0
0.1173,0,0.048876,0.01955
0.097752,0,0.048876,0.029326
0.087977,0,0.058651,0.029326
0.078201,0,0.048876,0.029326
0.068426,0,0.048876,0.029326
0.068426,0,0.048876,0.01955
0.068426,0,0.039101,0.01955
0.048876,0,0.039101,0.0097752
0.048876,0,0.039101,0.0097752
0.058651,0,0.048876,0.01955
0.048876,0,0.048876,0.039101
0.039101,0,0.048876,0.029326
0.029326,0,0.048876,0.01955
0.029326,0,0.048876,0.01955
0.029326,0,0.058651,0.01955
0.029326,0,0.048876,0.0097752
0.029326,0,0.048876,0.0097752
0.01955,0,0.058651,0.0097752
0.01955,0,0.058651,0.0097752
0.01955,0,0.068426,0.0097752
0.01955,0,0.078201,0.0097752
0.01955,0,0.078201,0.0097752
0.0097752,0,0.087977,0.0097752
0.01955,0,0.10753,0.0097752
0.01955,0,0.097752,0.0097752
0.01955,0,0.12708,0.0097752
0.0097752,0,0.12708,0.0097752
0.0097752,0,0.14663,0.0097752
0.0097752,0,0.14663,0.0097752
0.0097752,0,0.14663,0.0097752
0.01955,0,0.14663,0.0097752
0.01955,0,0.14663,0.0097752
0.0097752,0,0.1564,0.0097752
0.029326,0,0.14663,0.0097752
0.039101,0,0.13685,0.0097752
0.058651,0,0.12708,0.0097752
0.058651,0,0.12708,0.0097752
0.048876,0,0.14663,0
0.029326,0,0.13685,0
0.029326,0,0.12708,0
0.029326,0,0.12708,0
0.029326,0,0.12708,0
0.01955,0,0.12708,0
0.01955,0,0.12708,0
0.01955,0,0.1173,0.0097752
0.01955,0,0.1173,0.01955
0.01955,0,0.12708,0.0097752
0.0097752,0,0.12708,0.0097752
0.01955,0,0.13685,0.0097752
0.01955,0,0.1173,0.01955
0.01955,0,0.1173,0.0097752
0.0097752,0,0.12708,0.0097752
0.0097752,0,0.14663,0.0097752
0.0097752,0,0.14663,0.0097752
0.01955,0,0.12708,0.0097752
0.029326,0,0.14663,0
0.029326,0,0.12708,0
0.01955,0,0.12708,0.0097752
0.01955,0,0.13685,0.0097752
0.01955,0,0.12708,0.0097752
0.01955,0,0.1564,0
0.01955,0,0.14663,0.0097752
0.01955,0,0.13685,0.0097752
0.01955,0,0.12708,0
0.0097752,0,0.13685,0
0.01955,0,0.12708,0
0.01955,0,0.1173,0
0.0097752,0,0.12708,0
0.0097752,0,0.13685,0
0.01955,0,0.1564,0
0.01955,0,0.14663,0
0.01955,0,0.13685,0
0.01955,0,0.12708,0
0.01955,0,0.1173,0.0097752
0.0097752,0,0.10753,0.0097752
0.0097752,0,0.1173,0.0097752
0.0097752,0,0.12708,0.0097752
0.0097752,0,0.12708,0.029326
0.0097752,0,0.13685,0.029326
0.01955,0,0.12708,0.029326
0.01955,0,0.12708,0.029326
0.01955,0,0.12708,0.029326
0.0097752,0,0.12708,0.029326
0.0097752,0,0.12708,0.039101
0.0097752,0,0.14663,0.039101
0.0097752,0,0.14663,0.048876
0.0097752,0,0.16618,0.048876
0.0097752,0,0.16618,0.058651
0.0097752,0,0.14663,0.058651
0.01955,0,0.14663,0.097752
0.0097752,0,0.14663,0.10753
0.0097752,0,0.13685,0.097752
0.0097752,0,0.13685,0.087977
0.0097752,0,0.12708,0.087977
0.0097752,0,0.1173,0.078201
0.0097752,0,0.12708,0.078201
0.0097752,0,0.12708,0.068426
0.0097752,0,0.12708,0.068426
0,0,0.12708,0.068426
0.0097752,0,0.12708,0.068426
0.0097752,0,0.13685,0.078201
0.0097752,0,0.14663,0.087977
0.0097752,0,0.12708,0.087977
0.0097752,0,0.1173,0.087977
0.0097752,0,0.12708,0.087977
0.0097752,0,0.1173,0.078201
0.0097752,0,0.12708,0.078201
0.0097752,0,0.12708,0.10753
0,0,0.1173,0.097752
0,0,0.12708,0.087977
0.0097752,0,0.10753,0.068426
0.0097752,0,0.10753,0.068426
0,0,0.10753,0.058651
0,0,0.10753,0.048876
0,0,0.097752,0.039101
0,0,0.078201,0.039101
0.0097752,0,0.078201,0.048876
0.0097752,0,0.068426,0.039101
0.0097752,0,0.068426,0.029326
0.0097752,0,0.048876,0.029326
0.01955,0,0.048876,0.029326
0.01955,0,0.048876,0.029326
0.029326,0,0.048876,0.01955
0.029326,0,0.048876,0.01955
0.029326,0,0.058651,0.0097752
0.039101,0,0.048876,0.0097752
0.039101,0,0.068426,0.0097752
0.039101,0,0.058651,0.0097752
0.039101,0,0.068426,0
0.029326,0,0.058651,0.0097752
0.029326,0,0.068426,0
0.029326,0,0.058651,0
0.029326,0,0.058651,0
0.039101,0,0.058651,0
0.029326,0,0.058651,0
0.029326,0,0.068426,0
0.01955,0,0.058651,0
0.01955,0,0.058651,0
0.029326,0,0.068426,0
0.029326,0,0.058651,0
0.029326,0,0.048876,0
0.029326,0,0.048876,0
0.029326,0,0.039101,0
0.029326,0,0.048876,0
0.039101,0,0.048876,0.0097752
0.039101,0,0.058651,0.0097752
0.039101,0,0.048876,0.029326
0.039101,0,0.048876,0.048876
0.039101,0,0.048876,0.039101
0.039101,0,0.058651,0.029326
0.039101,0,0.068426,0.029326
0.048876,0,0.068426,0.01955
0.058651,0,0.068426,0.01955
0.068426,0,0.058651,0.01955
0.087977,0,0.058651,0.01955
0.1173,0,0.068426,0.039101
0.1173,0,0.058651,0.058651
0.14663,0,0.048876,0.048876
0.14663,0,0.048876,0.039101
0.12708,0,0.058651,0.029326
0.1173,0,0.058651,0.029326
0.1564,0,0.048876,0.029326
0.1564,0,0.048876,0.01955
0.14663,0,0.048876,0.01955
0.13685,0,0.058651,0.01955
0.12708,0,0.048876,0.01955
0.1173,0,0.048876,0.01955
0.10753,0,0.039101,0.0097752
0.10753,0,0.048876,0.0097752
0.12708,0,0.058651,0.01955
0.12708,0,0.058651,0.0097752
0.1173,0,0.048876,0.0097752
0.12708,0,0.039101,0.0097752
0.10753,0,0.048876,0.01955
0.1173,0,0.048876,0.01955
0.1173,0,0.039101,0.01955
0.1173,0,0.039101,0.0097752
0.12708,0,0.048876,0.0097752
0.10753,0,0.039101,0.0097752
0.097752,0,0.048876,0.0097752
0.087977,0,0.058651,0.0097752
0.078201,0,0.058651,0
0.078201,0,0.048876,0.0097752
0.068426,0,0.048876,0
0.058651,0,0.068426,0
0.048876,0,0.068426,0
0.058651,0,0.058651,0
0.048876,0,0.058651,0
0.048876,0,0.058651,0
0.039101,0,0.048876,0
0.039101,0,0.048876,0
0.039101,0,0.048876,0
0.039101,0,0.048876,0.0097752
0.029326,0,0.068426,0
0.01955,0,0.048876,0.0097752
0.01955,0,0.048876,0.01955
0.029326,0,0.058651,0.048876
0.029326,0,0.039101,0.048876
0.029326,0,0.048876,0.039101
0.048876,0,0.058651,0.029326
0.039101,0,0.058651,0.029326
0.039101,0,0.058651,0.01955
0.039101,0,0.058651,0.01955
0.048876,0,0.058651,0.0097752
0.039101,0,0.068426,0.0097752
0.039101,0,0.078201,0.0097752
0.029326,0,0.068426,0.0097752
0.029326,0,0.068426,0.0097752
0.039101,0,0.068426,0.0097752
0.039101,0,0.058651,0
0.039101,0,0.058651,0.0097752
0.048876,0,0.058651,0.0097752
0.039101,0,0.068426,0
0.039101,0,0.068426,0.0097752
0.039101,0,0.068426,0
0.029326,0,0.078201,0
0.029326,0,0.078201,0
0.039101,0,0.068426,0.0097752
0.039101,0,0.078201,0.0097752
0.039101,0,0.068426,0
0.048876,0,0.068426,0.0097752
0.048876,0,0.058651,0.0097752
0.039101,0,0.058651,0.0097752
0.029326,0,0.068426,0.0097752
0.029326,0,0.068426,0.0097752
0.029326,0,0.078201,0.0097752
0.01955,0,0.078201,0.0097752
0.01955,0,0.078201,0.0097752
0.01955,0,0.097752,0.0097752
0.01955,0,0.10753,0.0097752
0.01955,0,0.10753,0
0.029326,0,0.10753,0.0097752
0.029326,0,0.1173,0.0097752
0.029326,0,0.13685,0
0.029326,0,0.12708,0.0097752
0.039101,0,0.1173,0
0.029326,0,0.10753,0
0.029326,0,0.10753,0
0.029326,0,0.1173,0
0.029326,0,0.13685,0.0097752
0.029326,0,0.1564,0
0.01955,0,0.16618,0.0097752
0.01955,0,0.16618,0.0097752
0.01955,0,0.1564,0.0097752
0.029326,0,0.1564,0.0097752
0.029326,0,0.14663,0.0097752
0.01955,0,0.14663,0.0097752
0.01955,0,0.14663,0.0097752
0.01955,0,0.14663,0.0097752
0.01955,0,0.13685,0.0097752
0.029326,0,0.13685,0.01955
0.01955,0,0.12708,0.01955
0.01955,0,0.1564,0.01955
0.01955,0,0.16618,0.029326
0.01955,0,0.1564,0.029326
0.029326,0,0.13685,0.029326
0.01955,0,0.1564,0.029326
0.01955,0,0.14663,0.039101
0.01955,0,0.13685,0.029326
0.01955,0,0.13685,0.048876
0.01955,0,0.14663,0.068426
0.029326,0,0.13685,0.068426
0.01955,0,0.13685,0.058651
0.01955,0,0.13685,0.058651
0.01955,0,0.12708,0.078201
0.029326,0,0.1173,0.068426
0.01955,0,0.10753,0.068426
0.029326,0,0.10753,0.068426
0.01955,0,0.12708,0.058651
0.029326,0,0.1173,0.058651
0.029326,0,0.1564,0.058651
0.01955,0,0.16618,0.058651
0.01955,0,0.14663,0.068426
0.01955,0,0.12708,0.068426
0.029326,0,0.1173,0.068426
0.029326,0,0.10753,0.068426
0.029326,0,0.087977,0.078201
0.01955,0,0.097752,0.087977
0.01955,0,0.10753,0.097752
0.01955,0,0.097752,0.087977
0.01955,0,0.10753,0.078201
0.01955,0,0.10753,0.068426
0.01955,0,0.097752,0.068426
0.01955,0,0.097752,0.048876
0.01955,0,0.097752,0.068426
0.029326,0,0.097752,0.068426
0.029326,0,0.097752,0.058651
0.029326,0,0.097752,0.048876
0.029326,0,0.097752,0.039101
0.029326,0,0.087977,0.039101
0.029326,0,0.087977,0.029326
0.029326,0,0.10753,0.029326
0.029326,0,0.097752,0.029326
0.029326,0,0.078201,0.029326
0.029326,0,0.097752,0.01955
0.039101,0,0.097752,0.029326
0.039101,0,0.087977,0.029326
0.039101,0,0.078201,0.029326
0.039101,0,0.078201,0.029326
0.029326,0,0.078201,0.01955
0.039101,0,0.068426,0.01955
0.039101,0,0.058651,0.01955
0.039101,0,0.058651,0.01955
0.039101,0,0.068426,0.01955
0.029326,0,0.058651,0.0097752
0.029326,0,0.058651,0.0097752
0.039101,0,0.058651,0.0097752
0.029326,0,0.058651,0.0097752
0.039101,0,0.058651,0.0097752
0.048876,0,0.058651,0.0097752
0.048876,0,0.058651,0
0.048876,0,0.068426,0
0.048876,0,0.068426,0.0097752
0.058651,0,0.068426,0
0.058651,0,0.068426,0.0097752
0.078201,0,0.068426,0
0.087977,0,0.068426,0
0.078201,0,0.078201,0
0.097752,0,0.078201,0
0.097752,0,0.078201,0
0.10753,0,0.068426,0
0.13685,0,0.068426,0
0.12708,0,0.078201,0
0.12708,0,0.078201,0
0.12708,0,0.058651,0
0.12708,0,0.068426,0.0097752
0.1173,0,0.058651,0
0.12708,0,0.058651,0.0097752
0.16618,0,0.068426,0.048876
0.14663,0,0.068426,0.058651
0.14663,0,0.058651,0.048876
0.14663,0,0.058651,0.048876
0.14663,0,0.058651,0.039101
0.13685,0,0.048876,0.039101
0.12708,0,0.058651,0.01955
0.13685,0,0.058651,0.01955
0.1173,0,0.058651,0.01955
0.10753,0,0.058651,0.01955
0.097752,0,0.058651,0.01955
0.087977,0,0.058651,0.0097752
0.087977,0,0.058651,0.0097752
0.10753,0,0.068426,0.01955
0.097752,0,0.068426,0.0097752
0.087977,0,0.068426,0.0097752
0.068426,0,0.068426,0
0.068426,0,0.068426,0.0097752
0.058651,0,0.058651,0
0.058651,0,0.048876,0
0.048876,0,0.048876,0
0.039101,0,0.058651,0
0.039101,0,0.058651,0
0.029326,0,0.058651,0.0097752
0.029326,0,0.068426,0
0.029326,0,0.068426,0.0097752
0.01955,0,0.058651,0
0.01955,0,0.058651,0.0097752
0.01955,0,0.058651,0.0097752
0.0097752,0,0.058651,0.0097752
0.0097752,0,0.058651,0.01955
0.0097752,0,0.058651,0.029326
0.0097752,0,0.058651,0.029326
0.0097752,0,0.058651,0.029326
0.0097752,0,0.058651,0.01955
0.0097752,0,0.058651,0.01955
0.0097752,0,0.068426,0.01955
0.0097752,0,0.058651,0.0097752
0.0097752,0,0.058651,0.0097752
0.0097752,0,0.078201,0.0097752
0.058651,0,0.068426,0.0097752
0.068426,0,0.068426,0.0097752
0.058651,0,0.058651,0.0097752
0.048876,0,0.058651,0.0097752
0.048876,0,0.058651,0.0097752
0.039101,0,0.048876,0.048876
0.029326,0,0.048876,0.058651
0.01955,0,0.048876,0.048876
0.029326,0,0.048876,0.039101
0.01955,0,0.048876,0.039101
0.01955,0,0.039101,0.029326
0.01955,0,0.039101,0.01955
0.0097752,0,0.048876,0.01955
0.01955,0,0.048876,0.0097752
0.01955,0,0.039101,0.0097752
0.029326,0,0.048876,0.01955
0.029326,0,0.048876,0.0097752
0.01955,0,0.058651,0.0097752
0.029326,0,0.048876,0.0097752
0.01955,0,0.058651,0.0097752
0.0097752,0,0.058651,0
0.01955,0,0.068426,0
0.01955,0,0.068426,0.0097752
0.01955,0,0.078201,0
0.01955,0,0.078201,0.0097752
0.01955,0,0.087977,0
0.01955,0,0.078201,0
0.01955,0,0.068426,0
0.01955,0,0.087977,0
0.01955,0,0.068426,0
0.0097752,0,0.078201,0.0097752
0.01955,0,0.078201,0
0.01955,0,0.068426,0
0.01955,0,0.078201,0
0.01955,0,0.068426,0.0097752
0.01955,0,0.068426,0.0097752
0.01955,0,0.058651,0.0097752
0.029326,0,0.058651,0.0097752
0.029326,0,0.068426,0.0097752
0.029326,0,0.068426,0.0097752
0.029326,0,0.068426,0.0097752
0.01955,0,0.068426,0.0097752
0.01955,0,0.068426,0.0097752
0.01955,0,0.068426,0.0097752
0.01955,0,0.078201,0.01955
0.01955,0,0.078201,0.0097752
0.01955,0,0.068426,0.0097752
0.01955,0,0.058651,0.0097752
0.0097752,0,0.058651,0.0097752
0.0097752,0,0.058651,0.0097752
0.0097752,0,0.058651,0.0097752
0.0097752,0,0.058651,0.0097752
0.01955,0,0.058651,0.0097752
0.01955,0,0.068426,0
0.0097752,0,0.078201,0
0.0097752,0,0.087977,0
0.0097752,0,0.097752,0.0097752
0.0097752,0,0.078201,0
0.0097752,0,0.087977,0.0097752
0.0097752,0,0.10753,0.0097752
0.0097752,0,0.1173,0.0097752
0.01955,0,0.10753,0.0097752
0.01955,0,0.1173,0.0097752
0.01955,0,0.10753,0.0097752
0.01955,0,0.1173,0.0097752
0.0097752,0,0.1173,0.01955
0.01955,0,0.12708,0.01955
0.0097752,0,0.1173,0.01955
0.0097752,0,0.1173,0.01955
0.0097752,0,0.1173,0.01955
0.01955,0,0.12708,0.01955
0.01955,0,0.10753,0.01955
0.01955,0,0.14663,0.01955
0.01955,0,0.1564,0.01955
0.01955,0,0.14663,0.029326
0.01955,0,0.1564,0.039101
0.01955,0,0.1564,0.048876
0.0097752,0,0.14663,0.058651
0.0097752,0,0.13685,0.058651
0.0097752,0,0.1173,0.078201
0.0097752,0,0.10753,0.078201
0.0097752,0,0.097752,0.078201
0.0097752,0,0.10753,0.068426
0.0097752,0,0.10753,0.068426
0.0097752,0,0.097752,0.068426
0,0,0.097752,0.068426
0.0097752,0,0.097752,0.068426
0.0097752,0,0.10753,0.078201
0.0097752,0,0.10753,0.078201
0.0097752,0,0.10753,0.087977
0.0097752,0,0.10753,0.097752
0.0097752,0,0.10753,0.097752
0,0,0.10753,0.097752
0,0,0.1173,0.087977
0.0097752,0,0.1173,0.087977
0.0097752,0,0.10753,0.087977
0,0,0.087977,0.097752
0,0,0.087977,0.078201
0,0,0.097752,0.097752
0,0,0.087977,0.097752
0.0097752,0,0.087977,0.087977
0.0097752,0,0.087977,0.10753
0.0097752,0,0.087977,0.097752
0.029326,0.039101,0.0097752,0.097752
0.86999,1.6422,3.0694,0.87977
0.67449,1.2903,2.4242,0.72336
0.53763,1.0068,1.9159,0.59629
0.45943,0.79179,1.5249,0.48876
0.39101,0.61584,1.2121,0.40078
0.32258,0.48876,0.95797,0.32258
0.26393,0.38123,0.77224,0.2737
0.20528,0.29326,0.61584,0.22483
0.1564,0.2346,0.48876,0.18573
0.13685,0.18573,0.40078,0.1564
0.097752,0.14663,0.34213,0.13685
0.087977,0.10753,0.28348,0.10753
0.068426,0.078201,0.24438,0.097752
0.048876,0.068426,0.20528,0.078201
0.039101,0.048876,0.17595,0.058651
0.029326,0.039101,0.14663,0.048876
0.029326,0.029326,0.13685,0.048876
0.01955,0.01955,0.1173,0.029326
0.0097752,0.0097752,0.10753,0.029326
0.029326,0.0097752,0.10753,0.01955
0.039101,0,0.097752,0.01955
0.039101,0,0.10753,0.01955
0.039101,0,0.097752,0.0097752
0.039101,0,0.097752,0.0097752
0.029326,0,0.087977,0.0097752
0.029326,0,0.10753,0.0097752
0.039101,0,0.097752,0.0097752
0.039101,0,0.10753,0
0.029326,0,0.097752,0
0.039101,0,0.097752,0
0.029326,0,0.097752,0.0097752
0.029326,0,0.097752,0.01955
0.039101,0,0.087977,0.029326
0.039101,0,0.087977,0.029326
0.029326,0,0.078201,0.029326
0.029326,0,0.087977,0.01955
0.029326,0,0.078201,0.01955
0.029326,0,0.078201,0.01955
0.029326,0,0.078201,0.0097752
0.039101,0,0.087977,0.0097752
0.029326,0,0.078201,0.0097752
0.058651,0,0.078201,0.0097752
0.048876,0,0.097752,0.0097752
0.039101,0,0.097752,0.0097752
0.039101,0,0.097752,0.0097752
0.029326,0,0.097752,0
0.029326,0,0.10753,0
0.029326,0,0.10753,0.0097752
0.029326,0,0.1173,0.0097752
0.01955,0,0.10753,0.0097752
0.01955,0,0.097752,0
0.0097752,0,0.097752,0
0.0097752,0,0.097752,0
0.0097752,0,0.087977,0
0.0097752,0,0.087977,0
0.01955,0,0.087977,0
0.0097752,0,0.078201,0
0.0097752,0,0.097752,0
0.0097752,0,0.087977,0
0.0097752,0,0.087977,0.0097752
0.0097752,0,0.097752,0
0.0097752,0,0.097752,0
0.0097752,0,0.097752,0
0.0097752,0,0.10753,0
0.0097752,0,0.097752,0
0.0097752,0,0.097752,0
0.0097752,0,0.087977,0
0.0097752,0,0.078201,0
0.0097752,0,0.078201,0
0.01955,0,0.087977,0
0.029326,0,0.097752,0
0.029326,0,0.078201,0
0.029326,0,0.087977,0
0.029326,0,0.068426,0
0.029326,0,0.068426,0
0.029326,0,0.068426,0
0.01955,0,0.078201,0
0.01955,0,0.068426,0.0097752
0.01955,0,0.078201,0.01955
0.01955,0,0.078201,0.029326
0.029326,0,0.078201,0.039101
0.029326,0,0.078201,0.039101
0.029326,0,0.078201,0.029326
0.029326,0,0.068426,0.01955
0.029326,0,0.068426,0.01955
0.029326,0,0.068426,0.01955
0.029326,0,0.068426,0.01955
0.029326,0,0.068426,0.01955
0.039101,0,0.068426,0.0097752
0.039101,0,0.068426,0.0097752
0.048876,0,0.078201,0.01955
0.048876,0,0.068426,0.01955
0.048876,0,0.058651,0.01955
0.058651,0,0.058651,0.0097752
0.048876,0,0.058651,0.0097752
0.058651,0,0.048876,0.01955
0.068426,0,0.058651,0.01955
0.068426,0,0.058651,0.01955
0.058651,0,0.048876,0.0097752
0.048876,0,0.048876,0.0097752
0.048876,0,0.078201,0.0097752
0.039101,0,0.078201,0.01955
0.048876,0,0.078201,0.01955
0.058651,0,0.058651,0.0097752
0.068426,0,0.068426,0.0097752
0.058651,0,0.068426,0.01955
0.058651,0,0.068426,0.01955
0.068426,0,0.058651,0.01955
0.068426,0,0.058651,0.01955
0.068426,0,0.068426,0.029326
0.068426,0,0.048876,0.029326
0.068426,0,0.048876,0.029326
0.078201,0,0.048876,0.01955
0.078201,0,0.048876,0.0097752
0.068426,0,0.048876,0.0097752
0.068426,0,0.048876,0
0.097752,0,0.048876,0.0097752
0.13685,0,0.039101,0
0.1173,0,0.039101,0
0.10753,0,0.058651,0
0.097752,0,0.058651,0
0.087977,0,0.068426,0
0.087977,0,0.058651,0
0.10753,0,0.058651,0
0.10753,0,0.058651,0
0.097752,0,0.048876,0
0.078201,0,0.048876,0
0.068426,0,0.058651,0
0.068426,0,0.058651,0
0.058651,0,0.058651,0
0.048876,0,0.058651,0
0.048876,0,0.068426,0
0.039101,0,0.058651,0
0.029326,0,0.068426,0
0.029326,0,0.058651,0
0.029326,0,0.048876,0
0.029326,0,0.048876,0
0.029326,0,0.048876,0
0.01955,0,0.048876,0
0.01955,0,0.058651,0
0.01955,0,0.048876,0
0.01955,0,0.058651,0
0.01955,0,0.058651,0.0097752
0.01955,0,0.058651,0.0097752
0.01955,0,0.048876,0.0097752
0.01955,0,0.039101,0.0097752
0.0097752,0,0.039101,0.0097752
0.0097752,0,0.039101,0.0097752
0.01955,0,0.048876,0.0097752
0.029326,0,0.039101,0.0097752
0.039101,0,0.039101,0.0097752
0.029326,0,0.048876,0.01955
0.039101,0,0.048876,0.01955
0.039101,0,0.048876,0.01955
0.029326,0,0.058651,0.029326
0.01955,0,0.058651,0.029326
0.01955,0,0.058651,0.048876
0.01955,0,0.048876,0.039101
0.01955,0,0.058651,0.048876
0.01955,0,0.058651,0.048876
0.01955,0,0.058651,0.048876
0.0097752,0,0.068426,0.058651
0.0097752,0,0.068426,0.058651
0.068426,0,0.078201,0.058651
0.10753,0,0.068426,0.058651
0.10753,0,0.068426,0.068426
0.078201,0,0.068426,0.068426
0.058651,0,0.068426,0.068426
0.058651,0,0.058651,0.068426
0.058651,0,0.058651,0.068426
0.058651,0,0.048876,0.068426
0.048876,0,0.048876,0.078201
0.058651,0,0.048876,0.097752
0.058651,0,0.048876,0.10753
0.048876,0,0.048876,0.097752
0.048876,0,0.048876,0.097752
0.048876,0,0.048876,0.087977
0.039101,0,0.048876,0.078201
0.039101,0,0.058651,0.078201
0.039101,0,0.058651,0.068426
0.039101,0,0.058651,0.068426
0.029326,0,0.058651,0.058651
0.029326,0,0.068426,0.058651
0.029326,0,0.058651,0.058651
0.029326,0,0.058651,0.058651
0.039101,0,0.058651,0.058651
0.029326,0,0.048876,0.058651
0.039101,0,0.048876,0.048876
0.029326,0,0.039101,0.039101
0.029326,0,0.048876,0.048876
0.029326,0,0.048876,0.058651
0.029326,0,0.048876,0.039101
0.039101,0,0.048876,0.039101
0.039101,0,0.048876,0.029326
0.039101,0,0.058651,0.029326
0.029326,0,0.058651,0.029326
0.01955,0,0.058651,0.029326
0.01955,0,0.058651,0.029326
0.01955,0,0.058651,0.029326
0.039101,0,0.058651,0.039101
0.039101,0,0.058651,0.029326
0.029326,0,0.068426,0.029326
0.029326,0,0.068426,0.029326
0.029326,0,0.068426,0.029326
0.029326,0,0.068426,0.01955
0.029326,0,0.068426,0.01955
0.029326,0,0.068426,0.01955
0.029326,0,0.078201,0.029326
0.029326,0,0.078201,0.029326
0.029326,0,0.087977,0.029326
0.029326,0,0.078201,0.01955
0.029326,0,0.078201,0.01955
0.029326,0,0.068426,0.01955
0.039101,0,0.058651,0.0097752
0.029326,0,0.068426,0.01955
0.039101,0,0.078201,0.0097752
0.029326,0,0.078201,0.0097752
0.029326,0,0.078201,0.0097752
0.029326,0,0.078201,0.0097752
0.039101,0,0.10753,0
0.039101,0,0.10753,0
0.039101,0,0.1173,0
0.039101,0,0.1173,0
0.029326,0,0.10753,0
0.01955,0,0.097752,0
0.01955,0,0.087977,0
0.0097752,0,0.097752,0
0.0097752,0,0.087977,0
0.0097752,0,0.078201,0
0.0097752,0,0.068426,0
0,0,0.068426,0
0,0,0.068426,0.01955
0,0,0.068426,0.029326
0,0,0.068426,0.029326
0,0,0.068426,0.029326
0,0,0.068426,0.029326
0,0,0.068426,0.01955
0.0097752,0,0.068426,0.01955
0.01955,0,0.068426,0.0097752
0.01955,0,0.068426,0.0097752
0.01955,0,0.068426,0.0097752
0.048876,0,0.058651,0.0097752
0.048876,0,0.048876,0.0097752
0.048876,0,0.058651,0
0.048876,0,0.068426,0
0.058651,0,0.068426,0
0.068426,0,0.068426,0
0.058651,0,0.068426,0.0097752
0.058651,0,0.068426,0
0.048876,0,0.068426,0
0.048876,0,0.078201,0
0.048876,0,0.068426,0
0.058651,0,0.078201,0
0.048876,0,0.087977,0
0.048876,0,0.087977,0
0.048876,0,0.087977,0
0.048876,0,0.068426,0.01955
0.048876,0,0.058651,0.0097752
0.078201,0,0.048876,0.0097752
0.068426,0,0.048876,0
0.068426,0,0.048876,0.0097752
0.068426,0,0.048876,0
0.078201,0,0.048876,0
0.078201,0,0.039101,0
0.087977,0,0.039101,0
0.097752,0,0.048876,0
0.087977,0,0.048876,0
0.078201,0,0.048876,0
0.087977,0,0.068426,0
0.087977,0,0.068426,0
0.087977,0,0.068426,0
0.078201,0,0.068426,0
0.087977,0,0.087977,0
0.087977,0,0.078201,0
0.10753,0,0.078201,0
0.1173,0,0.078201,0
0.10753,0,0.068426,0
0.10753,0,0.058651,0
0.087977,0,0.058651,0.039101
0.087977,0,0.058651,0.039101
0.10753,0,0.058651,0.039101
0.097752,0,0.058651,0.039101
0.097752,0,0.058651,0.029326
0.087977,0,0.048876,0.039101
0.078201,0,0.048876,0.058651
0.078201,0,0.048876,0.058651
0.068426,0,0.048876,0.048876
0.068426,0,0.048876,0.048876
0.068426,0,0.048876,0.039101
0.058651,0,0.048876,0.029326
0.048876,0,0.058651,0.01955
0.048876,0,0.068426,0.01955
0.048876,0,0.058651,0.01955
0.048876,0,0.058651,0.01955
0.039101,0,0.068426,0.029326
0.029326,0,0.058651,0.029326
0.029326,0,0.058651,0.029326
0.029326,0,0.058651,0.01955
0.01955,0,0.068426,0.01955
0.01955,0,0.068426,0.0097752
0.01955,0,0.068426,0.0097752
0.01955,0,0.058651,0.01955
0.01955,0,0.068426,0.01955
0.0097752,0,0.068426,0.0097752
0.0097752,0,0.068426,0.0097752
0.0097752,0,0.068426,0.01955
0.01955,0,0.068426,0.0097752
0.0097752,0,0.058651,0.0097752
0.0097752,0,0.058651,0.0097752
0.0097752,0,0.048876,0.01955
0.0097752,0,0.058651,0.01955
0,0,0.058651,0.01955
0,0,0.048876,0.01955
0,0,0.048876,0.01955
0,0,0.039101,0.01955
0,0,0.048876,0.0097752
0,0,0.048876,0.0097752
0,0,0.048876,0.0097752
0,0,0.039101,0.0097752
0.0097752,0,0.039101,0.0097752
0.0097752,0,0.029326,0.0097752
0.0097752,0,0.048876,0.0097752
0.029326,0,0.039101,0
0.048876,0.0097752,0.048876,0
0.039101,0.0097752,0.039101,0
0.029326,0.0097752,0.058651,0
0.029326,0.0097752,0.058651,0
0.01955,0.0097752,0.048876,0
0.01955,0,0.048876,0
0.01955,0,0.048876,0
0.0097752,0,0.048876,0
0.01955,0,0.048876,0
0.0097752,0,0.048876,0
0.01955,0,0.048876,0
0.0097752,0,0.048876,0
0.039101,0,0.039101,0
0.048876,0,0.039101,0
0.039101,0,0.039101,0.0097752
0.029326,0,0.048876,0.039101
0.029326,0,0.039101,0.058651
0.039101,0,0.048876,0.068426
0.039101,0,0.048876,0.068426
0.039101,0,0.048876,0.058651
0.029326,0,0.048876,0.058651
0.029326,0,0.048876,0.048876
0.048876,0,0.048876,0.048876
0.039101,0,0.048876,0.048876
0.029326,0,0.048876,0.048876
0.029326,0,0.048876,0.048876
0.029326,0,0.048876,0.048876
0.029326,0,0.048876,0.039101
0.029326,0,0.048876,0.039101
0.029326,0,0.048876,0.039101
0.029326,0,0.058651,0.039101
0.01955,0,0.048876,0.039101
0.029326,0,0.058651,0.048876
0.01955,0,0.068426,0.048876
0.01955,0,0.058651,0.058651
0.01955,0,0.058651,0.048876
0.01955,0,0.048876,0.039101
0.029326,0,0.058651,0.039101
0.029326,0,0.058651,0.048876
0.029326,0,0.068426,0.048876
0.029326,0,0.068426,0.048876
0.029326,0,0.068426,0.048876
0.029326,0,0.058651,0.048876
0.01955,0,0.058651,0.058651
0.029326,0,0.058651,0.12708
0.029326,0,0.048876,0.10753
0.029326,0,0.058651,0.10753
0.039101,0,0.068426,0.12708
0.039101,0,0.058651,0.10753
0.029326,0,0.068426,0.10753
0.029326,0,0.068426,0.10753
0.029326,0,0.058651,0.087977
0.029326,0,0.068426,0.087977
0.029326,0,0.078201,0.068426
0.029326,0,0.068426,0.068426
0.029326,0,0.068426,0.078201
0.039101,0,0.068426,0.078201
0.048876,0,0.068426,0.068426
0.048876,0,0.068426,0.068426
0.058651,0,0.078201,0.068426
0.058651,0,0.078201,0.048876
0.068426,0,0.078201,0.048876
0.068426,0,0.068426,0.039101
0.058651,0,0.078201,0.029326
0.058651,0,0.087977,0.029326
0.039101,0,0.078201,0.039101
0.039101,0,0.087977,0.039101
0.029326,0,0.087977,0.029326
0.029326,0,0.10753,0.039101
0.01955,0,0.10753,0.039101
0.0097752,0,0.10753,0.039101
0.01955,0,0.097752,0.029326
0.0097752,0,0.097752,0.029326
0.01955,0,0.097752,0.029326
0.029326,0,0.097752,0.01955
0.029326,0,0.097752,0.01955
0.039101,0,0.087977,0.01955
0.029326,0,0.10753,0.01955
0.039101,0,0.10753,0.01955
0.039101,0,0.087977,0.01955
0.039101,0,0.087977,0.0097752
0.048876,0,0.078201,0.0097752
0.048876,0,0.087977,0.0097752
0.048876,0,0.097752,0.0097752
0.048876,0,0.097752,0
0.058651,0,0.097752,0
0.058651,0,0.097752,0
0.058651,0,0.097752,0
0.048876,0,0.097752,0
0.068426,0,0.087977,0
0.068426,0,0.087977,0
0.068426,0,0.078201,0
0.068426,0,0.078201,0
0.087977,0,0.068426,0
0.097752,0,0.068426,0
0.10753,0,0.058651,0
0.097752,0,0.039101,0
0.10753,0,0.039101,0
0.097752,0,0.039101,0
0.097752,0,0.058651,0
0.12708,0,0.058651,0
0.1564,0,0.048876,0.01955
0.14663,0,0.058651,0.01955
0.13685,0,0.048876,0.01955
0.12708,0,0.048876,0.029326
0.12708,0,0.048876,0.029326
0.1173,0,0.058651,0.029326
0.12708,0,0.048876,0.01955
0.1173,0,0.048876,0.029326
0.10753,0,0.039101,0.029326
0.12708,0,0.048876,0.01955
0.18573,0,0.039101,0.01955
0.17595,0,0.039101,0.01955
0.1564,0,0.039101,0.01955
0.12708,0,0.039101,0.01955
0.1173,0,0.029326,0.01955
0.10753,0,0.029326,0.0097752
0.10753,0,0.029326,0.0097752
0.10753,0,0.029326,0.0097752
0.097752,0,0.029326,0
0.12708,0,0.029326,0
0.13685,0,0.029326,0
0.13685,0,0.029326,0
0.1173,0,0.029326,0
0.10753,0,0.029326,0
0.097752,0,0.039101,0
0.087977,0,0.039101,0.0097752
0.087977,0,0.058651,0.0097752
0.10753,0,0.048876,0
0.10753,0,0.068426,0.0097752
0.10753,0,0.068426,0
0.10753,0,0.068426,0.0097752
0.097752,0,0.068426,0
0.078201,0,0.078201,0
0.068426,0,0.068426,0
0.068426,0,0.068426,0
0.058651,0,0.058651,0
0.048876,0,0.058651,0
0.048876,0,0.048876,0
0.039101,0,0.068426,0
0.029326,0,0.058651,0
0.029326,0,0.068426,0
0.029326,0,0.068426,0
0.01955,0,0.068426,0
0.01955,0,0.068426,0
0.0097752,0,0.058651,0
0.0097752,0,0.058651,0
0.0097752,0,0.058651,0.039101
0.0097752,0,0.068426,0.039101
0.0097752,0,0.058651,0.048876
0.0097752,0,0.058651,0.039101
0,0,0.058651,0.048876
0,0,0.048876,0.029326
0,0,0.048876,0.029326
0,0,0.048876,0.029326
0,0,0.048876,0.01955
0,0,0.058651,0.0097752
0,0,0.048876,0.01955
0,0,0.048876,0.0097752
0,0,0.048876,0.01955
0.0097752,0,0.039101,0.01955
0.0097752,0,0.039101,0.01955
0.048876,0.0097752,0.068426,0.0097752
0.087977,0,0.068426,0.0097752
0.068426,0,0.058651,0.0097752
0.058651,0,0.058651,0.0097752
0.048876,0,0.058651,0.0097752
0.048876,0,0.058651,0.0097752
0.039101,0,0.068426,0.0097752
0.058651,0,0.058651,0
0.068426,0,0.058651,0
0.058651,0,0.058651,0
0.048876,0,0.048876,0
0.048876,0,0.048876,0
0.048876,0,0.048876,0
0.039101,0,0.058651,0
0.039101,0,0.058651,0.0097752
0.039101,0,0.048876,0.0097752
0.039101,0,0.048876,0.0097752
0.048876,0,0.048876,0.0097752
0.039101,0,0.048876,0.0097752
0.029326,0,0.039101,0.01955
0.029326,0,0.039101,0.029326
0.029326,0,0.039101,0.029326
0.029326,0,0.029326,0.029326
0.029326,0,0.029326,0.029326
0.01955,0,0.029326,0.01955
0.01955,0,0.039101,0.01955
0.0097752,0,0.039101,0.0097752
0.0097752,0,0.039101,0.0097752
0.0097752,0,0.039101,0.0097752
0.01955,0,0.039101,0.0097752
0.0097752,0,0.048876,0.0097752
0.0097752,0,0.039101,0
0.01955,0,0.039101,0
0.01955,0,0.048876,0
0.029326,0,0.048876,0
0.029326,0,0.048876,0
0.029326,0,0.048876,0
0.048876,0,0.058651,0
0.039101,0,0.058651,0.0097752
0.039101,0,0.048876,0.0097752
0.039101,0,0.048876,0
0.029326,0,0.058651,0.0097752
0.029326,0,0.058651,0
0.029326,0,0.068426,0.0097752
0.01955,0,0.078201,0.0097752
0.029326,0,0.078201,0.0097752
0.029326,0,0.068426,0.0097752
0.01955,0,0.058651,0.0097752
0.01955,0,0.058651,0.0097752
0.01955,0,0.058651,0.01955
0.01955,0,0.068426,0.01955
0.01955,0,0.078201,0.01955
0.029326,0,0.068426,0.01955
0.029326,0,0.068426,0.01955
0.029326,0,0.068426,0.01955
0.01955,0,0.078201,0.029326
0.029326,0,0.078201,0.039101
0.029326,0,0.087977,0.029326
0.029326,0,0.078201,0.039101
0.029326,0,0.087977,0.029326
0.029326,0,0.087977,0.039101
0.029326,0,0.097752,0.039101
0.048876,0,0.097752,0.039101
0.048876,0,0.097752,0.039101
0.048876,0,0.097752,0.039101
0.039101,0,0.10753,0.039101
0.029326,0,0.1173,0.039101
0.029326,0,0.13685,0.039101
0.01955,0,0.13685,0.039101
0.01955,0,0.12708,0.039101
0.01955,0,0.12708,0.029326
0.01955,0,0.12708,0.10753
0.01955,0,0.12708,0.087977
0.01955,0,0.14663,0.078201
0.029326,0,0.13685,0.068426
0.029326,0,0.1173,0.068426
0.01955,0,0.12708,0.068426
0.029326,0,0.1173,0.087977
0.01955,0,0.12708,0.087977
0.01955,0,0.10753,0.097752
0.029326,0,0.1173,0.087977
0.029326,0,0.1173,0.087977
0.029326,0,0.1173,0.087977
0.029326,0,0.10753,0.097752
0.039101,0,0.1173,0.087977
0.029326,0,0.13685,0.097752
0.039101,0,0.1173,0.087977
0.029326,0,0.10753,0.078201
0.029326,0,0.097752,0.068426
0.039101,0,0.097752,0.058651
0.029326,0,0.087977,0.068426
0.039101,0,0.087977,0.058651
0.048876,0,0.087977,0.048876
0.048876,0,0.097752,0.048876
0.048876,0,0.087977,0.048876
0.048876,0,0.078201,0.048876
0.048876,0,0.087977,0.048876
0.068426,0,0.087977,0.048876
0.068426,0,0.078201,0.048876
0.087977,0,0.068426,0.048876
0.087977,0,0.078201,0.039101
0.087977,0,0.068426,0.039101
0.087977,0,0.068426,0.039101
0.078201,0,0.068426,0.039101
0.078201,0,0.058651,0.039101
0.068426,0,0.058651,0.029326
0.068426,0,0.068426,0.029326
0.068426,0,0.058651,0.029326
0.078201,0,0.048876,0.029326
0.068426,0,0.068426,0.029326
0.068426,0,0.058651,0.039101
0.13685,0,0.058651,0.039101
0.1173,0,0.048876,0.039101
0.10753,0,0.048876,0.039101
0.087977,0,0.058651,0.039101
0.078201,0,0.058651,0.029326
0.078201,0,0.058651,0.039101
0.097752,0,0.058651,0.029326
0.087977,0,0.058651,0.01955
0.078201,0,0.058651,0.01955
0.068426,0,0.058651,0.01955
0.058651,0,0.058651,0.0097752
0.058651,0,0.048876,0.0097752
0.058651,0,0.048876,0.0097752
0.048876,0,0.048876,0.0097752
0.048876,0,0.048876,0
0.048876,0,0.068426,0
0.039101,0,0.058651,0
0.048876,0,0.058651,0
0.039101,0,0.058651,0
0.039101,0,0.058651,0
0.039101,0,0.068426,0
0.029326,0,0.058651,0
0.039101,0,0.058651,0
0.029326,0,0.048876,0
0.01955,0,0.039101,0
0.01955,0,0.048876,0
0.01955,0,0.048876,0
0.01955,0,0.048876,0
0.01955,0,0.048876,0.0097752
0.01955,0,0.048876,0.0097752
0.01955,0,0.068426,0.0097752
0.01955,0,0.068426,0.01955
0.0097752,0,0.058651,0.01955
0.0097752,0,0.048876,0.0097752
0.0097752,0,0.058651,0.0097752
0.0097752,0,0.048876,0.01955
0.0097752,0,0.048876,0.01955
0.0097752,0,0.058651,0.0097752
0,0,0.058651,0.0097752
0.0097752,0,0.058651,0.0097752
0.0097752,0,0.048876,0.0097752
0.0097752,0,0.068426,0
0.0097752,0,0.058651,0
0.029326,0,0.048876,0
0.058651,0,0.058651,0
0.068426,0,0.048876,0
0.068426,0,0.048876,0
0.048876,0,0.058651,0
0.039101,0,0.048876,0
0.039101,0,0.048876,0
0.029326,0,0.048876,0
0.039101,0,0.058651,0
0.058651,0,0.058651,0
0.058651,0,0.048876,0
0.058651,0,0.058651,0
0.058651,0.0097752,0.058651,0
0.048876,0.0097752,0.048876,0
0.048876,0.01955,0.048876,0
0.029326,0.01955,0.048876,0
0.029326,0.01955,0.048876,0
0.039101,0.01955,0.048876,0
0.039101,0.0097752,0.048876,0
0.039101,0.0097752,0.048876,0
0.039101,0,0.039101,0
0.039101,0,0.039101,0
0.039101,0,0.029326,0
0.039101,0,0.048876,0.0097752
0.029326,0,0.058651,0.01955
0.029326,0,0.058651,0.01955
0.029326,0,0.058651,0.029326
0.029326,0,0.048876,0.029326
0.01955,0,0.068426,0.01955
0.01955,0,0.058651,0.01955
0.0097752,0,0.058651,0.0097752
0.0097752,0,0.058651,0.0097752
0.01955,0,0.048876,0.0097752
0.01955,0,0.048876,0.0097752
0.01955,0,0.048876,0
0.039101,0,0.058651,0
0.039101,0,0.058651,0
0.029326,0,0.058651,0.0097752
0.029326,0,0.068426,0
0.029326,0,0.068426,0
0.01955,0,0.068426,0
0.01955,0,0.068426,0.0097752
0.01955,0,0.068426,0
0.01955,0,0.058651,0.0097752
0.01955,0,0.068426,0.0097752
0.01955,0,0.068426,0.0097752
0.01955,0,0.078201,0.0097752
0.01955,0,0.068426,0
0.01955,0,0.078201,0
0.0097752,0,0.068426,0
0.0097752,0,0.078201,0
0.0097752,0,0.078201,0
0.01955,0,0.078201,0
0.01955,0,0.078201,0.0097752
0.01955,0,0.078201,0
0.029326,0,0.078201,0.0097752
0.029326,0,0.078201,0.01955
0.039101,0,0.078201,0.01955
0.029326,0,0.078201,0.01955
0.01955,0,0.078201,0.01955
0.01955,0,0.078201,0.01955
0.0097752,0,0.087977,0.01955
0.0097752,0,0.078201,0.01955
0.0097752,0,0.068426,0.01955
0.0097752,0,0.078201,0.0097752
0.0097752,0,0.097752,0.0097752
0.0097752,0,0.087977,0.0097752
0.0097752,0,0.087977,0
0.0097752,0,0.097752,0
0.0097752,0,0.10753,0
0.0097752,0,0.087977,0
0.01955,0,0.097752,0.0097752
0.029326,0,0.097752,0.0097752
0.029326,0,0.087977,0.0097752
0.029326,0,0.097752,0
0.01955,0,0.087977,0
0.01955,0,0.097752,0
0.01955,0,0.087977,0
0.01955,0,0.097752,0
0.029326,0,0.087977,0
0.029326,0,0.10753,0
0.029326,0,0.097752,0
0.039101,0,0.097752,0.0097752
0.048876,0,0.097752,0.0097752
0.048876,0,0.087977,0.0097752
0.039101,0,0.10753,0.01955
0.039101,0,0.097752,0.01955
0.039101,0,0.087977,0.01955
0.048876,0,0.087977,0.029326
0.039101,0,0.097752,0.029326
0.039101,0,0.087977,0.029326
0.058651,0,0.087977,0.029326
0.058651,0,0.087977,0.029326
0.058651,0,0.078201,0.01955
0.048876,0,0.087977,0.029326
0.048876,0,0.097752,0.01955
0.058651,0,0.078201,0.01955
0.058651,0,0.068426,0.029326
0.058651,0,0.068426,0.01955
0.058651,0,0.068426,0.029326
0.078201,0,0.068426,0.029326
0.078201,0,0.058651,0.029326
0.078201,0,0.058651,0.029326
0.078201,0,0.068426,0.039101
0.078201,0,0.058651,0.039101
0.058651,0,0.058651,0.039101
0.068426,0,0.058651,0.039101
0.068426,0,0.058651,0.039101
0.058651,0,0.058651,0.039101
0.058651,0,0.058651,0.048876
0.058651,0,0.048876,0.048876
0.078201,0,0.029326,0.048876
0.097752,0,0.048876,0.039101
0.087977,0,0.058651,0.039101
0.087977,0,0.048876,0.058651
0.087977,0,0.039101,0.058651
0.078201,0,0.048876,0.058651
0.078201,0,0.058651,0.087977
0.10753,0,0.058651,0.097752
0.10753,0,0.048876,0.087977
0.097752,0,0.048876,0.078201
0.087977,0,0.058651,0.068426
0.078201,0,0.058651,0.058651
0.13685,0,0.048876,0.058651
0.17595,0,0.039101,0.058651
0.28348,0,0.039101,0.058651
0.26393,0,0.058651,0.048876
0.22483,0,0.048876,0.039101
0.22483,0.0097752,0.048876,0.029326
0.18573,0.01955,0.058651,0.029326
0.1564,0.01955,0.048876,0.029326
0.13685,0.01955,0.048876,0.029326
0.10753,0.01955,0.058651,0.029326
0.087977,0.0097752,0.058651,0.01955
0.087977,0.0097752,0.058651,0.01955
0.087977,0.0097752,0.068426,0.01955
0.068426,0,0.068426,0.0097752
0.058651,0,0.068426,0.01955
0.058651,0,0.058651,0.01955
0.058651,0,0.048876,0.01955
0.058651,0,0.058651,0.01955
0.048876,0,0.048876,0.01955
0.039101,0,0.048876,0.029326
0.029326,0,0.048876,0.01955
0.029326,0,0.039101,0.01955
0.029326,0,0.048876,0.01955
0.01955,0,0.058651,0.0097752
0.01955,0,0.048876,0.01955
0.01955,0,0.039101,0.01955
0.01955,0,0.039101,0.029326
0.01955,0,0.048876,0.029326
0.0097752,0,0.048876,0.039101
0.0097752,0,0.048876,0.029326
0.0097752,0,0.039101,0.029326
0.0097752,0,0.029326,0.01955
0.0097752,0,0.039101,0.01955
0.0097752,0,0.039101,0.0097752
0.0097752,0,0.039101,0.0097752
0.0097752,0,0.039101,0.0097752
0.0097752,0,0.039101,0.0097752
0.039101,0,0.039101,0.0097752
0.1173,0,0.058651,0
0.097752,0,0.048876,0.0097752
0.087977,0,0.039101,0.0097752
0.078201,0,0.048876,0
0.068426,0,0.058651,0
0.058651,0,0.058651,0
0.058651,0,0.058651,0
0.048876,0,0.058651,0.0097752
0.048876,0,0.068426,0.0097752
0.039101,0,0.068426,0.0097752
0.039101,0,0.058651,0.0097752
0.058651,0,0.058651,0.0097752
0.048876,0,0.048876,0
0.048876,0,0.048876,0.0097752
0.039101,0,0.048876,0
0.029326,0,0.058651,0
0.029326,0,0.048876,0
0.029326,0.0097752,0.068426,0
0.039101,0.0097752,0.068426,0
0.048876,0.0097752,0.058651,0
0.048876,0.01955,0.068426,0.0097752
0.039101,0.01955,0.058651,0.0097752
0.039101,0.01955,1.8084,0.0097752
0.029326,0.01955,1.7204,0.0097752
0.029326,0.01955,1.3783,0.0097752
0.029326,0.01955,1.085,0.0097752
0.01955,0.01955,0.86999,0.0097752
0.01955,0.0097752,0.69404,0.0097752
0.029326,0.0097752,0.55718,0.0097752
0.01955,0.0097752,0.44966,0.029326
0.01955,0,0.36168,0.029326
0.01955,0,0.30303,0.01955
0.01955,0,0.24438,0.0097752
0.029326,0,0.20528,0.0097752
0.01955,0,0.17595,0.01955
0.01955,0,0.1564,0.01955
0.01955,0,0.13685,0.0097752
0.01955,0,0.12708,0.0097752
0.01955,0,0.1173,0.0097752
0.01955,0,0.097752,0.0097752
0.029326,0,0.097752,0.0097752
0.029326,0,0.097752,0
0.029326,0,0.087977,0
0.029326,0,0.097752,0.0097752
0.029326,0,0.10753,0
0.029326,0,0.097752,0.0097752
0.01955,0,0.097752,0
0.029326,0,0.10753,0
0.029326,0,0.10753,0
0.029326,0,0.1173,0
0.029326,0,0.14663,0
0.01955,0,0.18573,0.01955
0.029326,0,0.17595,0.01955
0.01955,0,0.1955,0.029326
0.01955,0,0.1955,0.039101
0.01955,0,0.22483,0.029326
0.01955,0,0.22483,0.029326
0.01955,0,0.21505,0.01955
0.01955,0,0.2346,0.01955
0.029326,0,0.26393,0.0097752
0.029326,0,0.25415,0.0097752
0.039101,0,0.24438,0.01955
0.039101,0,0.22483,0.039101
0.039101,0,0.21505,0.039101
0.039101,0,0.22483,0.048876
0.039101,0,0.24438,0.058651
0.039101,0,0.20528,0.048876
0.039101,0,0.1955,0.039101
0.039101,0,0.24438,0.029326
0.029326,0,0.22483,0.029326
0.029326,0,0.2346,0.01955
0.029326,0,0.22483,0.01955
0.01955,0,0.21505,0.0097752
0.029326,0,0.22483,0.0097752
0.029326,0,0.20528,0.01955
0.029326,0,0.22483,0.0097752
0.039101,0,0.26393,0
0.039101,0,0.26393,0
0.029326,0,0.26393,0.0097752
0.029326,0,0.24438,0.0097752
0.039101,0,0.2346,0.0097752
0.048876,0,0.20528,0.0097752
0.048876,0,0.24438,0.0097752
0.058651,0,0.22483,0.0097752
0.048876,0,0.21505,0.0097752
0.048876,0,0.18573,0.0097752
0.058651,0,0.1955,0.0097752
0.048876,0,0.17595,0.01955
0.048876,0,0.18573,0.0097752
0.048876,0,0.17595,0.0097752
0.039101,0,0.17595,0.0097752
0.039101,0,0.16618,0.0097752
0.029326,0,0.14663,0.0097752
0.039101,0,0.14663,0
0.039101,0,0.1564,0
0.048876,0,0.14663,0
0.048876,0,0.13685,0
0.058651,0,0.10753,0.0097752
0.058651,0,0.14663,0
0.068426,0,0.13685,0
0.068426,0,0.12708,0
0.068426,0,0.1564,0
0.068426,0,0.1564,0
0.068426,0,0.16618,0
0.087977,0,0.1564,0
0.087977,0,0.16618,0
0.087977,0,0.17595,0
0.087977,0,0.16618,0
0.097752,0,0.16618,0
0.097752,0,0.14663,0
0.097752,0,0.12708,0.0097752
0.097752,0,0.13685,0.0097752
0.097752,0,0.1173,0.01955
0.16618,0,0.12708,0.01955
0.18573,0,0.1173,0.029326
0.21505,0,0.10753,0.048876
0.18573,0,0.097752,0.048876
0.20528,0,0.10753,0.048876
0.18573,0,0.087977,0.048876
0.16618,0,0.087977,0.058651
0.13685,0,0.078201,0.058651
0.1173,0,0.068426,0.048876
0.1173,0,0.068426,0.039101
0.10753,0,0.068426,0.048876
0.097752,0.0097752,0.087977,0.048876
0.087977,0.029326,0.087977,0.039101
0.078201,0.029326,0.087977,0.048876
0.068426,0.039101,0.087977,0.048876
0.068426,0.029326,0.087977,0.058651
0.068426,0.01955,0.087977,0.058651
0.058651,0.0097752,0.087977,0.048876
0.048876,0.0097752,0.078201,0.048876
0.039101,0,0.078201,0.048876
0.039101,0,0.087977,0.058651
0.039101,0,0.087977,0.058651
0.039101,0,0.078201,0.048876
0.029326,0,0.078201,0.058651
0.01955,0,0.068426,0.048876
0.029326,0,0.058651,0.058651
0.029326,0,0.058651,0.058651
0.029326,0,0.048876,0.087977
0.01955,0,0.048876,0.097752
0.01955,0,0.058651,0.10753
0.01955,0,0.048876,0.1173
0.0097752,0,0.039101,0.1173
0.0097752,0,0.039101,0.1173
0.0097752,0,0.039101,0.10753
0.0097752,0,0.039101,0.10753
0.0097752,0,0.029326,0.10753
0.0097752,0,0.029326,0.087977
0.0097752,0,0.039101,0.087977
0,0,0.039101,0.068426
0,0,0.039101,0.068426
0,0,0.039101,0.058651
0,0,0.039101,0.068426
0,0,0.048876,0.068426
0,0,0.039101,0.058651
0,0,0.039101,0.048876
0,0,0.048876,0.058651
0.01955,0,0.048876,0.068426
0.048876,0,0.048876,0.058651
0.058651,0,0.039101,0.048876
0.048876,0,0.048876,0.048876
0.048876,0,0.039101,0.039101
0.039101,0,0.039101,0.039101
0.039101,0,0.039101,0.039101
0.029326,0,0.048876,0.029326
0.029326,0,0.048876,0.039101
0.039101,0,0.048876,0.029326
0.058651,0,0.048876,0.029326
0.058651,0,0.048876,0.029326
0.058651,0,0.039101,0.029326
0.048876,0,0.048876,0.029326
0.048876,0,0.048876,0.039101
0.048876,0,0.048876,0.029326
0.039101,0,0.048876,0.029326
0.029326,0,0.048876,0.01955
0.01955,0,0.048876,0.01955
0.01955,0,0.048876,0.01955
0.039101,0.0097752,0.048876,0.0097752
0.058651,0.0097752,0.039101,0.0097752
0.048876,0.01955,0.048876,0.0097752
0.048876,0.01955,0.039101,0.0097752
0.048876,0.029326,0.039101,0.0097752
0.048876,0.029326,0.048876,0
0.048876,0.01955,0.048876,0
0.048876,0.0097752,0.058651,0
0.048876,0.0097752,0.048876,0
0.039101,0.0097752,0.048876,0
0.029326,0,0.048876,0
0.029326,0,0.058651,0
0.029326,0,0.048876,0
0.01955,0,0.048876,0
0.01955,0,0.058651,0
0.01955,0,0.058651,0
0.01955,0,0.039101,0.01955
0.039101,0,0.039101,0.01955
0.039101,0,0.039101,0.01955
0.029326,0,0.048876,0.0097752
0.029326,0.097752,0.068426,0.058651
1.2023,1.6129,3.0694,0.83089
0.94819,1.2708,2.4633,0.67449
0.74291,1.0068,1.9844,0.55718
0.58651,0.80156,1.5934,0.44966
0.45943,0.63539,1.3001,0.37146
0.37146,0.50831,1.0753,0.31281
0.29326,0.41056,0.88954,0.25415
0.24438,0.32258,0.73314,0.20528
0.18573,0.26393,0.62561,0.17595
0.1564,0.22483,0.55718,0.14663
0.12708,0.18573,0.48876,0.12708
0.10753,0.1564,0.40078,0.10753
0.087977,0.13685,0.33236,0.087977
0.078201,0.1173,0.29326,0.078201
0.068426,0.097752,0.24438,0.058651
0.048876,0.097752,0.21505,0.048876
0.048876,0.087977,0.1955,0.048876
0.039101,0.068426,0.17595,0.039101
0.029326,0.068426,0.1564,0.039101
0.029326,0.068426,0.12708,0.039101
0.029326,0.068426,0.1173,0.039101
0.01955,0.058651,0.12708,0.048876
0.029326,0.048876,0.12708,0.039101
0.029326,0.048876,0.10753,0.039101
0.039101,0.048876,0.087977,0.039101
0.029326,0.048876,0.097752,0.078201
0.029326,0.039101,0.087977,0.078201
0.029326,0.048876,0.087977,0.068426
0.029326,0.048876,0.087977,0.058651
0.01955,0.048876,0.087977,0.058651
0.01955,0.048876,0.078201,0.058651
0.029326,0.039101,0.058651,0.058651
0.029326,0.029326,0.048876,0.058651
0.029326,0.029326,0.068426,0.058651
0.01955,0.029326,0.068426,0.058651
0.0097752,0.029326,0.068426,0.048876
0.01955,0.029326,0.058651,0.048876
0.0097752,0.039101,0.068426,0.058651
0.0097752,0.029326,0.058651,0.058651
0.0097752,0.039101,0.058651,0.087977
0.01955,0.048876,0.048876,0.097752
0.01955,0.048876,0.058651,0.087977
0.01955,0.058651,0.058651,0.087977
0.0097752,0.078201,0.058651,0.1564
0.0097752,0.087977,0.048876,0.1564
0.0097752,0.087977,0.058651,0.14663
0.01955,0.078201,0.048876,0.13685
0.0097752,0.068426,0.048876,0.12708
0.01955,0.068426,0.048876,0.10753
0.01955,0.078201,0.048876,0.10753
0.01955,0.078201,0.048876,0.097752
0.01955,0.068426,0.048876,0.097752
0.0097752,0.068426,0.058651,0.087977
0.0097752,0.078201,0.048876,0.078201
0.0097752,0.087977,0.058651,0.087977
0.0097752,0.078201,0.048876,0.078201
0.0097752,0.087977,0.058651,0.087977
0.0097752,0.087977,0.058651,0.078201
0.0097752,0.087977,0.058651,0.068426
0.0097752,0.078201,0.058651,0.068426
0.0097752,0.078201,0.058651,0.068426
0.0097752,0.068426,0.048876,0.058651
0.0097752,0.068426,0.058651,0.048876
0.0097752,0.058651,0.058651,0.048876
0.0097752,0.058651,0.058651,0.039101
0.01955,0.058651,0.068426,0.039101
0.0097752,0.058651,0.078201,0.039101
0.0097752,0.058651,0.078201,0.039101
0.0097752,0.058651,0.068426,0.048876
0.0097752,0.048876,0.068426,0.048876
0.0097752,0.048876,0.068426,0.048876
0.0097752,0.039101,0.078201,0.039101
0.0097752,0.039101,0.078201,0.039101
0.0097752,0.048876,0.087977,0.029326
0.0097752,0.048876,0.087977,0.029326
0.0097752,0.039101,0.078201,0.029326
0.0097752,0.039101,0.078201,0.01955
0.0097752,0.039101,0.087977,0.01955
0.0097752,0.039101,0.078201,0.01955
0.0097752,0.029326,0.078201,0.01955
0.0097752,0.029326,0.078201,0.0097752
0.0097752,0.029326,0.078201,0.0097752
0.0097752,0.029326,0.078201,0.0097752
0.01955,0.039101,0.078201,0.0097752
0.01955,0.039101,0.068426,0.0097752
0.029326,0.039101,0.068426,0
0.029326,0.039101,0.068426,0
0.029326,0.039101,0.078201,0
0.029326,0.048876,0.078201,0.0097752
0.029326,0.048876,0.068426,0.0097752
0.039101,0.058651,0.078201,0.0097752
0.029326,0.058651,0.087977,0.0097752
0.029326,0.068426,0.087977,0.0097752
0.039101,0.058651,0.087977,0.048876
0.048876,0.048876,0.1173,0.078201
0.048876,0.048876,0.1173,0.16618
0.039101,0.048876,0.1173,0.1564
0.039101,0.029326,0.10753,0.12708
0.039101,0.029326,0.097752,0.10753
0.048876,0.01955,0.10753,0.087977
0.048876,0.0097752,0.1173,0.087977
0.048876,0.0097752,0.10753,0.068426
0.048876,0.0097752,0.10753,0.058651
0.058651,0.01955,0.1173,0.048876
0.068426,0.01955,0.097752,0.039101
0.058651,0.01955,0.097752,0.029326
0.058651,0.01955,0.1173,0.029326
0.068426,0.01955,0.12708,0.029326
0.068426,0.029326,0.12708,0.029326
0.068426,0.029326,0.12708,0.029326
0.068426,0.029326,0.12708,0.01955
0.078201,0.029326,0.1564,0.029326
0.068426,0.01955,0.18573,0.029326
0.068426,0.029326,0.1955,0.029326
0.068426,0.029326,0.21505,0.029326
0.078201,0.039101,0.1955,0.01955
0.078201,0.039101,0.18573,0.01955
0.078201,0.039101,0.22483,0.01955
0.078201,0.048876,0.1955,0.01955
0.097752,0.048876,0.16618,0.01955
0.087977,0.048876,0.1564,0.0097752
0.078201,0.039101,0.17595,0.0097752
0.078201,0.039101,0.18573,0.0097752
0.1564,0.048876,0.17595,0.0097752
0.13685,0.048876,0.18573,0.0097752
0.13685,0.048876,0.1955,0.0097752
0.10753,0.048876,0.18573,0.01955
0.10753,0.058651,0.18573,0.029326
0.097752,0.048876,0.16618,0.029326
0.097752,0.058651,0.17595,0.029326
0.087977,0.058651,0.1564,0.029326
0.078201,0.048876,0.1564,0.029326
0.068426,0.058651,0.14663,0.01955
0.068426,0.058651,0.1564,0.01955
0.058651,0.048876,0.14663,0.01955
0.048876,0.058651,0.12708,0.01955
0.058651,0.068426,0.12708,0.0097752
0.048876,0.048876,0.12708,0.0097752
0.039101,0.039101,0.10753,0.0097752
0.048876,0.029326,0.097752,0.0097752
0.048876,0.01955,0.097752,0.0097752
0.048876,0.01955,0.1173,0
0.048876,0.0097752,0.10753,0
0.058651,0,0.097752,0
0.048876,0,0.1173,0
0.048876,0,0.1173,0.0097752
0.048876,0,0.1173,0.0097752
0.048876,0,0.1173,0.0097752
0.039101,0,0.097752,0
0.029326,0,0.097752,0.0097752
0.029326,0,0.087977,0.0097752
0.029326,0,0.12708,0.0097752
0.01955,0,0.10753,0.01955
0.01955,0.0097752,0.097752,0.058651
0.0097752,0.0097752,0.097752,0.068426
0.0097752,0.01955,0.10753,0.058651
0.0097752,0.029326,0.10753,0.048876
0.0097752,0.048876,0.10753,0.039101
0.0097752,0.048876,0.10753,0.029326
0.0097752,0.048876,0.10753,0.039101
0.0097752,0.048876,0.097752,0.029326
0.0097752,0.058651,0.087977,0.01955
0.0097752,0.068426,0.087977,0.01955
0.0097752,0.068426,0.097752,0.0097752
0,0.068426,0.078201,0.0097752
0,0.058651,0.087977,0.0097752
0,0.058651,0.087977,0.0097752
0,0.058651,0.078201,0
0,0.058651,0.058651,0
0,0.068426,0.058651,0
0,0.058651,0.048876,0
0.01955,0.058651,0.048876,0
0.078201,0.068426,0.048876,0
0.078201,0.068426,0.048876,0
0.058651,0.068426,0.039101,0
0.048876,0.068426,0.039101,0
0.039101,0.068426,0.048876,0
0.039101,0.058651,0.048876,0
0.029326,0.068426,0.039101,0
0.01955,0.058651,0.039101,0.0097752
0.01955,0.068426,0.048876,0.0097752
0.01955,0.068426,0.058651,0.0097752
0.01955,0.058651,0.048876,0.0097752
0.039101,0.058651,0.048876,0.0097752
0.039101,0.068426,0.087977,0.0097752
0.048876,0.058651,0.097752,0.0097752
0.039101,0.058651,0.078201,0.0097752
0.048876,0.058651,0.068426,0.0097752
0.039101,0.048876,0.078201,0.0097752
0.039101,0.048876,0.078201,0.0097752
0.039101,0.039101,0.068426,0.0097752
0.039101,0.039101,0.058651,0.0097752
0.039101,0.039101,0.068426,0.0097752
0.039101,0.048876,0.068426,0.01955
0.039101,0.048876,0.078201,0.01955
0.039101,0.039101,0.068426,0.01955
0.039101,0.039101,0.058651,0.01955
0.039101,0.039101,0.058651,0.01955
0.039101,0.039101,0.058651,0.01955
0.039101,0.039101,0.058651,0.01955
0.039101,0.048876,0.048876,0.01955
0.029326,0.039101,0.068426,0.01955
0.029326,0.039101,0.058651,0.029326
0.01955,0.048876,0.058651,0.029326
0.01955,0.048876,0.048876,0.039101
0.01955,0.048876,0.048876,0.048876
0.01955,0.058651,0.058651,0.087977
0.01955,0.058651,0.058651,0.1173
0.01955,0.048876,0.058651,0.10753
0.029326,0.058651,0.048876,0.097752
0.029326,0.087977,0.048876,0.087977
0.029326,0.078201,0.048876,0.087977
0.01955,0.068426,0.048876,0.078201
0.01955,0.058651,0.048876,0.068426
0.0097752,0.048876,0.058651,0.068426
0.0097752,0.068426,0.058651,0.078201
0.01955,0.058651,0.068426,0.078201
0.01955,0.048876,0.058651,0.078201
0.01955,0.048876,0.058651,0.1173
0.01955,0.048876,0.058651,0.13685
0.01955,0.048876,0.058651,0.12708
0.01955,0.048876,0.048876,0.1173
0.01955,0.048876,0.058651,0.10753
0.01955,0.048876,0.058651,0.12708
0.0097752,0.048876,0.048876,0.13685
0.0097752,0.039101,0.048876,0.14663
0.0097752,0.039101,0.048876,0.1173
0.0097752,0.039101,0.058651,0.10753
0.0097752,0.039101,0.058651,0.097752
0.0097752,0.039101,0.048876,0.078201
0.0097752,0.029326,0.048876,0.078201
0.0097752,0.029326,0.048876,0.068426
0.0097752,0.029326,0.058651,0.058651
0,0.029326,0.058651,0.058651
0.0097752,0.029326,0.048876,0.068426
0.0097752,0.029326,0.048876,0.068426
0.0097752,0.029326,0.039101,0.068426
0.0097752,0.029326,0.039101,0.058651
0.0097752,0.01955,0.048876,0.058651
0.01955,0.01955,0.039101,0.048876
0.01955,0.01955,0.048876,0.048876
0.0097752,0.029326,0.048876,0.048876
0.0097752,0.029326,0.058651,0.048876
0.0097752,0.029326,0.058651,0.039101
0.0097752,0.029326,0.058651,0.039101
0.0097752,0.01955,0.058651,0.039101
0.0097752,0.029326,0.068426,0.039101
0.0097752,0.029326,0.068426,0.029326
0.0097752,0.01955,0.068426,0.029326
0.0097752,0.029326,0.068426,0.029326
0.0097752,0.029326,0.058651,0.01955
0.01955,0.029326,0.068426,0.01955
0.01955,0.029326,0.048876,0.029326
0.0097752,0.039101,0.048876,0.029326
0.0097752,0.039101,0.048876,0.029326
0.01955,0.029326,0.058651,0.01955
0.01955,0.039101,0.058651,0.01955
0.01955,0.039101,0.058651,0.0097752
0.01955,0.029326,0.058651,0.0097752
0.01955,0.039101,0.078201,0.0097752
0.01955,0.039101,0.078201,0.0097752
0.01955,0.029326,0.078201,0.0097752
0.01955,0.039101,0.068426,0
0.029326,0.039101,0.068426,0
0.029326,0.029326,0.068426,0.0097752
0.029326,0.029326,0.058651,0.0097752
0.039101,0.029326,0.058651,0.039101
0.048876,0.01955,0.078201,0.058651
0.039101,0.01955,0.068426,0.048876
0.039101,0.0097752,0.087977,0.058651
0.039101,0.0097752,0.087977,0.078201
0.039101,0.0097752,0.078201,0.068426
0.048876,0,0.078201,0.058651
0.048876,0,0.068426,0.048876
0.039101,0,0.068426,0.039101
0.048876,0,0.068426,0.029326
0.058651,0,0.068426,0.029326
0.048876,0,0.087977,0.029326
0.048876,0,0.087977,0.01955
0.058651,0,0.087977,0.01955
0.068426,0.0097752,0.078201,0.01955
0.068426,0.0097752,0.087977,0.01955
0.068426,0.01955,0.078201,0.01955
0.068426,0.01955,0.078201,0.01955
0.078201,0.029326,0.078201,0.0097752
0.087977,0.029326,0.087977,0.0097752
0.087977,0.039101,0.087977,0.0097752
0.078201,0.039101,0.097752,0.0097752
0.087977,0.048876,0.097752,0.0097752
0.078201,0.039101,0.097752,0
0.087977,0.048876,0.10753,0.0097752
0.087977,0.039101,0.097752,0.0097752
0.097752,0.048876,0.087977,0.0097752
0.097752,0.048876,0.1173,0.0097752
0.10753,0.048876,0.10753,0.0097752
0.12708,0.039101,0.097752,0.01955
0.1564,0.048876,0.10753,0.01955
0.16618,0.039101,0.097752,0.01955
0.17595,0.048876,0.097752,0.0097752
0.1564,0.048876,0.097752,0.0097752
0.14663,0.048876,0.087977,0.0097752
0.13685,0.048876,0.097752,0.0097752
0.12708,0.048876,0.097752,0.0097752
0.097752,0.039101,0.087977,0.0097752
0.097752,0.039101,0.087977,0.0097752
0.087977,0.029326,0.087977,0.0097752
0.078201,0.01955,0.10753,0.0097752
0.068426,0.0097752,0.10753,0.01955
0.068426,0.0097752,0.097752,0.029326
0.068426,0.0097752,0.12708,0.039101
0.058651,0.0097752,0.14663,0.039101
0.048876,0.0097752,0.13685,0.048876
0.039101,0.0097752,0.12708,0.029326
0.039101,0.01955,0.1173,0.029326
0.039101,0.01955,0.1173,0.029326
0.039101,0.029326,0.12708,0.01955
0.029326,0.029326,0.14663,0.01955
0.029326,0.029326,0.14663,0.01955
0.029326,0.029326,0.12708,0.0097752
0.029326,0.039101,0.1173,0.01955
0.01955,0.058651,0.14663,0.01955
0.029326,0.068426,0.13685,0.01955
0.029326,0.068426,0.12708,0.0097752
0.039101,0.068426,0.1173,0.01955
0.039101,0.068426,0.1173,0.01955
0.029326,0.058651,0.10753,0.01955
0.029326,0.058651,0.10753,0.0097752
0.01955,0.058651,0.087977,0.01955
0.01955,0.048876,0.087977,0.01955
0.01955,0.048876,0.087977,0.029326
0.01955,0.048876,0.068426,0.029326
0.01955,0.048876,0.068426,0.029326
0.01955,0.048876,0.068426,0.029326
0.01955,0.039101,0.078201,0.029326
0.0097752,0.039101,0.087977,0.039101
0.01955,0.048876,0.097752,0.029326
0.01955,0.048876,0.087977,0.029326
0.01955,0.048876,0.1173,0.029326
0.01955,0.048876,0.097752,0.01955
0.0097752,0.048876,0.087977,0.01955
0.01955,0.048876,0.097752,0.029326
0.01955,0.048876,0.087977,0.029326
0.01955,0.048876,0.087977,0.039101
0.029326,0.039101,0.078201,0.048876
0.029326,0.048876,0.078201,0.039101
0.058651,0.048876,0.087977,0.039101
0.068426,0.048876,0.078201,0.029326
0.048876,0.039101,0.068426,0.029326
0.048876,0.039101,0.087977,0.029326
0.048876,0.039101,0.078201,0.01955
0.039101,0.039101,0.068426,0.01955
0.048876,0.039101,0.068426,0.0097752
0.039101,0.029326,0.068426,0.0097752
0.039101,0.029326,0.068426,0.0097752
0.029326,0.029326,0.058651,0.0097752
0.029326,0.029326,0.048876,0.0097752
0.029326,0.039101,0.048876,0
0.029326,0.039101,0.048876,0
0.01955,0.039101,0.058651,0.0097752
0.01955,0.039101,0.068426,0.0097752
0.039101,0.048876,0.068426,0.0097752
0.039101,0.058651,0.068426,0.01955
0.058651,0.058651,0.068426,0.0097752
0.048876,0.058651,0.058651,0.0097752
0.039101,0.048876,0.048876,0.0097752
0.039101,0.058651,0.048876,0.0097752
0.029326,0.068426,0.058651,0.0097752
0.029326,0.058651,0.068426,0.01955
0.01955,0.068426,0.068426,0.01955
0.01955,0.058651,0.058651,0.0097752
0.01955,0.048876,0.058651,0.01955
0.01955,0.058651,0.058651,0.01955
0.029326,0.058651,0.058651,0.01955
0.048876,0.058651,0.058651,0.01955
0.029326,0.058651,0.058651,0.01955
0.029326,0.058651,0.058651,0.01955
0.029326,0.078201,0.058651,0.029326
0.039101,0.068426,0.048876,0.029326
0.029326,0.058651,0.039101,0.029326
0.01955,0.058651,0.048876,0.068426
0.01955,0.048876,0.048876,0.097752
0.01955,0.048876,0.048876,0.078201
0.01955,0.048876,0.039101,0.068426
0.0097752,0.048876,0.029326,0.058651
0.01955,0.048876,0.039101,0.058651
0.01955,0.039101,0.039101,0.048876
0.01955,0.039101,0.029326,0.048876
0.01955,0.029326,0.029326,0.058651
0.01955,0.039101,0.029326,0.068426
0.029326,0.039101,0.048876,0.068426
0.01955,0.029326,0.039101,0.068426
0.01955,0.029326,0.039101,0.078201
0.01955,0.039101,0.048876,0.078201
0.01955,0.029326,0.068426,0.068426
0.01955,0.029326,0.058651,0.068426
0.01955,0.029326,0.058651,0.058651
0.01955,0.029326,0.048876,0.068426
0.01955,0.039101,0.048876,0.068426
0.01955,0.039101,0.048876,0.078201
0.01955,0.039101,0.048876,0.087977
0.01955,0.039101,0.039101,0.078201
0.0097752,0.039101,0.048876,0.087977
0.01955,0.029326,0.048876,0.087977
0.01955,0.039101,0.048876,0.087977
0.01955,0.039101,0.048876,0.087977
0.029326,0.039101,0.058651,0.087977
0.029326,0.039101,0.058651,0.078201
0.029326,0.029326,0.058651,0.078201
0.029326,0.029326,0.058651,0.068426
0.01955,0.029326,0.048876,0.068426
0.01955,0.029326,0.048876,0.058651
0.01955,0.039101,0.048876,0.048876
0.0097752,0.029326,0.039101,0.048876
0.01955,0.029326,0.048876,0.058651
0.01955,0.029326,0.039101,0.048876
0.01955,0.048876,0.039101,0.058651
0.01955,0.039101,0.048876,0.058651
0.0097752,0.048876,0.058651,0.048876
0.0097752,0.048876,0.048876,0.048876
0.0097752,0.048876,0.058651,0.048876
0,0.039101,0.058651,0.048876
0,0.029326,0.058651,0.039101
0,0.029326,0.058651,0.039101
0,0.039101,0.068426,0.039101
0,0.029326,0.058651,0.039101
0,0.01955,0.058651,0.039101
0,0.029326,0.078201,0.039101
0,0.01955,0.068426,0.029326
0.0097752,0.0097752,0.068426,0.029326
0.0097752,0.0097752,0.068426,0.029326
0.0097752,0,0.068426,0.029326
0.0097752,0,0.068426,0.01955
0.01955,0,0.058651,0.029326
0.01955,0,0.078201,0.039101
0.01955,0.01955,0.087977,0.029326
0.029326,0.0097752,0.097752,0.029326
0.029326,0.01955,0.087977,0.029326
0.029326,0.029326,0.087977,0.029326
0.039101,0.029326,0.10753,0.01955
0.039101,0.039101,0.097752,0.01955
0.039101,0.029326,0.097752,0.01955
0.048876,0.039101,0.087977,0.0097752
0.039101,0.048876,0.087977,0.0097752
0.039101,0.039101,0.087977,0.0097752
0.048876,0.039101,0.087977,0.029326
0.048876,0.039101,0.097752,0.048876
0.048876,0.039101,0.087977,0.048876
0.048876,0.039101,0.078201,0.068426
0.048876,0.039101,0.078201,0.078201
0.048876,0.039101,0.087977,0.078201
0.058651,0.039101,0.078201,0.068426
0.048876,0.039101,0.078201,0.058651
0.048876,0.039101,0.087977,0.048876
0.048876,0.039101,0.087977,0.039101
0.048876,0.039101,0.087977,0.029326
0.058651,0.039101,0.097752,0.029326
0.068426,0.039101,0.097752,0.029326
0.078201,0.048876,0.097752,0.029326
0.078201,0.048876,0.10753,0.01955
0.068426,0.048876,0.12708,0.01955
0.087977,0.048876,0.1173,0.01955
0.087977,0.058651,0.13685,0.01955
0.097752,0.048876,0.1564,0.0097752
0.097752,0.048876,0.14663,0.0097752
0.097752,0.048876,0.13685,0.0097752
0.097752,0.029326,0.13685,0.0097752
0.10753,0.029326,0.12708,0.0097752
0.1173,0.01955,0.1173,0
0.10753,0.01955,0.12708,0.0097752
0.12708,0.0097752,0.12708,0.0097752
0.14663,0.0097752,0.12708,0.0097752
0.13685,0.01955,0.1173,0.01955
0.13685,0.01955,0.1173,0.01955
0.14663,0.029326,0.10753,0.01955
0.16618,0.029326,0.097752,0.0097752
0.1564,0.029326,0.097752,0.01955
0.14663,0.029326,0.10753,0.0097752
0.13685,0.029326,0.097752,0.0097752
0.13685,0.039101,0.10753,0.0097752
0.12708,0.029326,0.10753,0.0097752
0.1173,0.048876,0.10753,0
0.10753,0.058651,0.10753,0
0.097752,0.068426,0.097752,0
0.10753,0.078201,0.078201,0.0097752
0.10753,0.068426,0.078201,0.029326
0.087977,0.068426,0.068426,0.039101
0.078201,0.058651,0.068426,0.039101
0.068426,0.058651,0.068426,0.039101
0.068426,0.068426,0.058651,0.029326
0.068426,0.058651,0.058651,0.029326
0.068426,0.058651,0.068426,0.01955
0.058651,0.058651,0.087977,0.01955
0.058651,0.058651,0.10753,0.0097752
0.048876,0.058651,0.1173,0.0097752
0.058651,0.048876,0.10753,0.0097752
0.048876,0.058651,0.12708,0.0097752
0.039101,0.048876,0.13685,0.0097752
0.048876,0.048876,0.1564,0.0097752
0.048876,0.048876,0.1564,0.01955
0.048876,0.039101,0.16618,0.029326
0.029326,0.048876,0.17595,0.01955
0.029326,0.048876,0.1955,0.01955
0.029326,0.048876,0.16618,0.01955
0.029326,0.048876,0.1564,0.01955
0.01955,0.048876,0.17595,0.01955
0.0097752,0.048876,0.17595,0.01955
0.0097752,0.048876,0.17595,0.0097752
0.0097752,0.058651,0.17595,0.01955
0.0097752,0.068426,0.1564,0.0097752
0.0097752,0.068426,0.17595,0.0097752
0.0097752,0.068426,0.1955,0.0097752
0.01955,0.068426,0.20528,0.0097752
0.01955,0.058651,0.17595,0.0097752
0.01955,0.048876,0.1564,0.0097752
0.01955,0.048876,0.13685,0.01955
0.048876,0.048876,0.13685,0.01955
0.068426,0.048876,0.13685,0.029326
0.068426,0.048876,0.1173,0.01955
0.058651,0.048876,0.097752,0.029326
0.048876,0.029326,0.1173,0.039101
0.039101,0.058651,0.097752,0.039101
0.039101,0.058651,0.087977,0.029326
0.029326,0.068426,0.087977,0.029326
0.029326,0.058651,0.10753,0.01955
0.029326,0.058651,0.10753,0.01955
0.029326,0.048876,0.1173,0.01955
0.01955,0.048876,0.10753,0.01955
0.01955,0.058651,0.1173,0.0097752
0.01955,0.068426,0.1173,0.0097752
0.029326,0.068426,0.097752,0.0097752
0.039101,0.068426,0.10753,0
0.039101,0.058651,0.10753,0
0.058651,0.058651,0.097752,0
0.068426,0.058651,0.10753,0
0.048876,0.058651,0.097752,0
0.039101,0.068426,0.087977,0
0.039101,0.068426,0.097752,0
0.029326,0.058651,0.087977,0
0.029326,0.048876,0.087977,0
0.01955,0.048876,0.10753,0
0.029326,0.048876,0.097752,0
0.029326,0.048876,0.087977,0.0097752
0.029326,0.048876,0.078201,0.0097752
0.029326,0.048876,0.078201,0.01955
0.01955,0.048876,0.078201,0.01955
0.01955,0.048876,0.087977,0.0097752
0.01955,0.048876,0.087977,0.0097752
0.01955,0.048876,0.087977,0.0097752
0.01955,0.048876,0.10753,0.0097752
0.01955,0.048876,0.10753,0.0097752
0.01955,0.039101,0.10753,0.0097752
0.01955,0.039101,0.097752,0.0097752
0.029326,0.039101,0.097752,0.01955
0.039101,0.039101,0.087977,0.01955
0.039101,0.039101,0.078201,0.01955
0.029326,0.039101,0.087977,0.029326
0.029326,0.039101,0.068426,0.01955
0.039101,0.029326,0.068426,0.029326
0.039101,0.029326,0.058651,0.029326
0.039101,0.029326,0.048876,0.029326
0.039101,0.029326,0.058651,0.029326
0.039101,0.029326,0.058651,0.039101
0.029326,0.039101,0.058651,0.029326
0.029326,0.039101,0.058651,0.039101
0.01955,0.029326,0.068426,0.039101
0.0097752,0.039101,0.078201,0.039101
0.0097752,0.039101,0.068426,0.1173
0.01955,0.039101,0.058651,0.13685
0.0097752,0.039101,0.058651,0.12708
0.0097752,0.029326,0.058651,0.10753
0.0097752,0.039101,0.058651,0.10753
0.0097752,0.029326,0.058651,0.097752
0.01955,0.029326,0.058651,0.087977
0.0097752,0.029326,0.058651,0.078201
0.0097752,0.029326,0.058651,0.068426
0.0097752,0.029326,0.068426,0.068426
0.0097752,0.029326,0.068426,0.068426
0.0097752,0.029326,0.068426,0.068426
0.0097752,0.039101,0.087977,0.058651
0.0097752,0.039101,0.1173,0.058651
0.0097752,0.048876,0.13685,0.048876
0.01955,0.058651,0.14663,0.058651
0.029326,0.048876,0.12708,0.058651
0.029326,0.048876,0.1173,0.068426
0.029326,0.097752,0.12708,0.078201
0.01955,0.20528,0.13685,0.087977
0.01955,0.18573,0.16618,0.087977
0.0097752,0.18573,0.16618,0.078201
0.0097752,0.16618,0.21505,0.087977
0.0097752,0.14663,0.18573,0.087977
0.0097752,0.12708,0.18573,0.087977
0.0097752,0.10753,0.17595,0.078201
0,0.087977,0.18573,0.078201
0,0.068426,0.16618,0.078201
0,0.058651,0.17595,0.078201
0.0097752,0.039101,0.20528,0.068426
0.0097752,0.029326,0.18573,0.068426
0.0097752,0.01955,0.18573,0.068426
0.0097752,0.01955,0.17595,0.068426
0.0097752,0.0097752,0.16618,0.048876
0.0097752,0.029326,0.20528,0.048876
0.01955,0.039101,0.21505,0.039101
0.0097752,0.058651,0.18573,0.048876
0.01955,0.048876,0.1564,0.039101
0.01955,0.058651,0.14663,0.039101
0.029326,0.058651,0.13685,0.039101
0.029326,0.058651,0.14663,0.029326
0.039101,0.048876,0.14663,0.029326
0.048876,0.048876,0.14663,0.029326
0.048876,0.048876,0.17595,0.029326
0.048876,0.048876,0.17595,0.029326
0.058651,0.068426,0.17595,0.01955
0.048876,0.068426,0.17595,0.01955
0.048876,0.068426,0.17595,0.01955
0.058651,0.068426,0.1564,0.0097752
0.058651,0.058651,0.16618,0.01955
0.058651,0.058651,0.1564,0.01955
0.068426,0.058651,0.17595,0.01955
0.068426,0.058651,0.21505,0.0097752
0.068426,0.068426,0.1955,0.0097752
0.058651,0.068426,0.18573,0.0097752
0.058651,0.087977,0.16618,0.0097752
0.058651,0.087977,0.1564,0
0.058651,0.087977,0.17595,0
0.058651,0.087977,0.14663,0
0.058651,0.078201,0.17595,0.039101
0.058651,0.058651,0.16618,0.039101
0.058651,0.048876,0.14663,0.068426
0.068426,0.029326,0.14663,0.078201
0.068426,0.029326,0.17595,0.068426
0.087977,0.01955,0.1564,0.058651
0.1173,0.0097752,0.13685,0.039101
0.1173,0.029326,0.12708,0.039101
0.1173,0.029326,0.14663,0.029326
0.10753,0.029326,0.1564,0.029326
0.10753,0.029326,0.13685,0.029326
0.10753,0.029326,0.13685,0.029326
0.10753,0.039101,0.12708,0.029326
0.12708,0.048876,0.13685,0.01955
0.13685,0.068426,0.1564,0.01955
0.12708,0.068426,0.17595,0.01955
0.1173,0.068426,0.14663,0.01955
0.16618,0.068426,0.14663,0.0097752
0.17595,0.078201,0.12708,0.0097752
0.1955,0.078201,0.14663,0.0097752
0.1955,0.078201,0.12708,0.0097752
0.16618,0.087977,0.10753,0
0.14663,0.087977,0.1173,0
0.14663,0.097752,0.10753,0
0.12708,0.087977,0.097752,0
0.12708,0.087977,0.087977,0
0.1173,0.087977,0.10753,0
0.1173,0.087977,0.10753,0
0.10753,0.087977,0.1173,0
0.097752,0.087977,0.10753,0.0097752
0.087977,0.078201,0.087977,0
0.078201,0.078201,0.097752,0
0.068426,0.078201,0.12708,0
0.058651,0.087977,0.10753,0
0.058651,0.078201,0.10753,0
0.048876,0.087977,0.10753,0
0.048876,0.087977,0.097752,0
0.068426,0.097752,0.1173,0.0097752
0.078201,0.10753,0.097752,0.0097752
0.068426,0.10753,0.097752,0.0097752
0.068426,0.097752,0.1173,0.01955
0.068426,0.087977,0.1173,0.0097752
0.058651,0.078201,0.10753,0.0097752
0.048876,0.078201,0.10753,0.0097752
0.048876,0.068426,0.10753,0.0097752
0.039101,0.068426,0.097752,0
0.048876,0.068426,0.087977,0
0.048876,0.068426,0.078201,0
0.039101,0.068426,0.068426,0
0.029326,0.068426,0.087977,0
0.029326,0.068426,0.097752,0
0.029326,0.068426,0.097752,0
0.01955,0.058651,0.078201,0.0097752
0.01955,0.048876,0.078201,0.01955
0.01955,0.048876,0.078201,0.029326
0.01955,0.048876,0.087977,0.029326
0.01955,0.048876,0.078201,0.039101
0.01955,0.048876,0.087977,0.039101
0.0097752,0.048876,0.078201,0.039101
0.01955,0.048876,0.068426,0.029326
0.0097752,0.039101,0.058651,0.01955
0.0097752,0.039101,0.068426,0.01955
0.0097752,0.039101,0.068426,0.0097752
0.01955,0.048876,0.058651,0.0097752
0.0097752,0.048876,0.068426,0.01955
0.0097752,0.039101,0.058651,0.048876
0.0097752,0.039101,0.058651,0.039101
0.01955,0.048876,0.068426,0.039101
0.01955,0.048876,0.068426,0.048876
0.01955,0.029326,0.068426,0.039101
0.039101,0.12708,0.058651,0.029326
0.048876,0.13685,0.058651,0.029326
0.048876,0.1564,0.058651,0.01955
0.039101,0.13685,0.048876,0.01955
0.039101,0.12708,0.048876,0.0097752
0.029326,0.10753,0.048876,0.0097752
0.029326,0.097752,0.039101,0.0097752
0.01955,0.087977,0.039101,0.0097752
0.01955,0.068426,0.029326,0.01955
0.01955,0.068426,0.039101,0.0097752
0.029326,0.078201,0.039101,0.0097752
0.029326,0.087977,0.039101,0.01955
0.029326,0.078201,0.039101,0.0097752
0.029326,0.078201,0.039101,0.0097752
0.029326,0.068426,0.048876,0.0097752
0.039101,0.068426,0.048876,0.0097752
0.058651,0.058651,0.048876,0.01955
0.058651,0.058651,0.058651,0.0097752
0.058651,0.048876,0.068426,0.0097752
0.048876,0.048876,0.068426,0.0097752
0.048876,0.048876,0.068426,0.0097752
0.048876,0.058651,0.068426,0
0.048876,0.058651,0.058651,0
0.058651,0.058651,0.058651,0
0.039101,0.048876,0.048876,0
0.039101,0.048876,0.048876,0
0.039101,0.039101,0.048876,0
0.029326,0.039101,0.048876,0
0.039101,0.029326,0.048876,0
0.039101,0.029326,0.058651,0
0.039101,0.039101,0.058651,0
0.039101,0.029326,0.048876,0
0.029326,0.029326,0.048876,0
0.029326,0.029326,0.058651,0
0.029326,0.029326,0.048876,0
0.029326,0.029326,0.048876,0
0.029326,0.039101,0.068426,0
0.039101,0.039101,0.068426,0.0097752
0.048876,0.039101,0.068426,0.0097752
0.058651,0.039101,0.058651,0
0.048876,0.029326,0.058651,0
0.048876,0.039101,0.048876,0
0.039101,0.039101,0.058651,0
0.029326,0.039101,0.058651,0
0.029326,0.048876,0.068426,0.0097752
0.029326,0.039101,0.068426,0.0097752
0.01955,0.039101,0.078201,0.0097752
0.01955,0.039101,0.078201,0.0097752
0.029326,0.048876,0.087977,0.0097752
0.029326,0.048876,0.078201,0.0097752
0.029326,0.048876,0.078201,0.01955
0.029326,0.058651,0.078201,0.0097752
0.039101,0.058651,0.078201,0.0097752
0.029326,0.058651,0.068426,0.0097752
0.029326,0.058651,0.058651,0.01955
0.01955,0.058651,0.078201,0.01955
0.01955,0.058651,0.068426,0.01955
0.01955,0.058651,0.078201,0.01955
0.01955,0.048876,0.078201,0.029326
0.01955,0.058651,0.087977,0.029326
0.029326,0.058651,0.10753,0.087977
0.029326,0.068426,0.1173,0.087977
0.039101,0.068426,0.1173,0.078201
0.048876,0.058651,0.10753,0.078201
0.039101,0.068426,0.12708,0.068426
0.029326,0.058651,0.13685,0.058651
0.039101,0.058651,0.12708,0.068426
0.039101,0.078201,0.1564,0.078201
0.039101,0.068426,0.14663,0.078201
0.029326,0.078201,0.13685,0.078201
0.01955,0.087977,0.14663,0.068426
0.01955,0.078201,0.1564,0.068426
0.01955,0.078201,0.16618,0.068426
0.0097752,0.097752,0.14663,0.068426
0.0097752,0.097752,0.13685,0.078201
0.0097752,0.1173,0.1564,0.068426
0.01955,0.12708,0.17595,0.078201
0.01955,0.12708,0.17595,0.087977
0.01955,0.12708,0.18573,0.097752
0.01955,0.12708,0.16618,0.097752
0.01955,0.12708,0.1564,0.087977
0.029326,0.1173,0.13685,0.078201
0.029326,0.1173,0.14663,0.078201
0.029326,0.13685,0.13685,0.078201
0.029326,0.1173,0.14663,0.078201
0.029326,0.1173,0.1564,0.068426
0.039101,0.10753,0.16618,0.058651
0.039101,0.10753,0.18573,0.068426
0.039101,0.10753,0.17595,0.078201
0.029326,0.10753,0.17595,0.068426
0.029326,0.097752,0.18573,0.058651
0.048876,0.087977,0.1564,0.048876
0.039101,0.087977,0.16618,0.048876
0.039101,0.078201,0.14663,0.048876
0.039101,0.058651,0.13685,0.048876
0.048876,0.048876,0.1173,0.039101
0.048876,0.039101,0.13685,0.039101
0.048876,0.058651,0.1564,0.048876
0.058651,0.068426,0.14663,0.039101
0.058651,0.068426,0.13685,0.029326
0.058651,0.058651,0.13685,0.029326
0.078201,0.048876,0.1173,0.01955
0.078201,0.029326,0.1173,0.029326
0.087977,0.01955,0.10753,0.029326
0.097752,0.029326,0.097752,0.029326
0.087977,0.058651,0.087977,0.029326
0.087977,0.078201,0.087977,0.029326
0.097752,0.087977,0.087977,0.039101
0.10753,0.097752,0.10753,0.039101
0.10753,0.097752,0.12708,0.039101
0.12708,0.10753,0.10753,0.039101
0.12708,0.10753,0.097752,0.029326
0.1173,0.097752,0.10753,0.039101
0.12708,0.097752,0.097752,0.039101
0.13685,0.097752,0.087977,0.039101
0.14663,0.097752,0.087977,0.039101
0.13685,0.10753,0.10753,0.068426
0.12708,0.10753,0.097752,0.068426
0.1173,0.10753,0.087977,0.068426
0.1173,0.10753,0.097752,0.087977
0.13685,0.10753,0.087977,0.087977
0.14663,0.097752,0.078201,0.068426
0.12708,0.087977,0.078201,0.058651
0.12708,0.087977,0.078201,0.048876
0.16618,0.097752,0.068426,0.039101
0.1564,0.10753,0.068426,0.029326
0.13685,0.097752,0.068426,0.029326
0.12708,0.087977,0.068426,0.01955
0.13685,0.087977,0.068426,0.029326
0.1173,0.078201,0.068426,0.01955
0.1173,0.078201,0.068426,0.01955
0.10753,0.087977,0.058651,0.01955
0.087977,0.078201,0.058651,0.01955
0.078201,0.068426,0.078201,0.01955
0.078201,0.078201,0.078201,0.01955
0.078201,0.078201,0.10753,0.01955
0.068426,0.078201,0.13685,0.01955
0.058651,0.087977,0.18573,0.01955
0.048876,0.097752,0.20528,0.01955
0.039101,0.10753,0.18573,0.01955
0.039101,0.097752,0.1564,0.01955
0.029326,0.097752,0.17595,0.01955
0.029326,0.097752,0.16618,0.0097752
0.01955,0.087977,0.14663,0.0097752
0.01955,0.087977,0.14663,0.0097752
0.01955,0.087977,0.12708,0.0097752
0.01955,0.078201,0.13685,0.0097752
0.01955,0.087977,0.14663,0.0097752
0.01955,0.087977,0.12708,0.0097752
0.01955,0.087977,0.1173,0.01955
0.01955,0.087977,0.12708,0.01955
0.0097752,0.078201,0.1173,0.01955
0.0097752,0.078201,0.13685,0.01955
0.0097752,0.087977,0.1173,0.0097752
0.01955,0.097752,0.10753,0.0097752
0.0097752,0.087977,0.12708,0.0097752
0.0097752,0.087977,0.13685,0.0097752
0.0097752,0.097752,0.1173,0.039101
0.0097752,0.097752,0.10753,0.048876
0,0.087977,0.087977,0.039101
0,0.10753,0.097752,0.039101
0,0.12708,0.097752,0.029326
0,0.13685,0.10753,0.029326
0,0.1173,0.097752,0.029326
0,0.087977,0.097752,0.01955
0,0.078201,0.097752,0.0097752
0,0.097752,0.10753,0.0097752
0.058651,0.087977,0.097752,0.01955
0.058651,0.097752,0.10753,0.0097752
0.048876,0.10753,0.10753,0.01955
0.039101,0.10753,0.087977,0.01955
0.039101,0.10753,0.097752,0.01955
0.029326,0.12708,0.078201,0.0097752
0.029326,0.12708,0.058651,0.01955
0.029326,0.12708,0.078201,0.01955
0.01955,0.12708,0.087977,0.039101
0.0097752,0.12708,0.078201,0.058651
0.01955,0.12708,0.068426,0.048876
0.0097752,0.1173,0.068426,0.039101
0.0097752,0.13685,0.068426,0.048876
0.0097752,0.1173,0.068426,0.058651
0.0097752,0.10753,0.068426,0.048876
0.0097752,0.097752,0.068426,0.039101
0.0097752,0.087977,0.078201,0.029326
0.01955,0.078201,0.078201,0.029326
0.029326,0.068426,0.078201,0.039101
0.029326,0.068426,0.087977,0.039101
0.01955,0.068426,0.078201,0.039101
0.029326,0.068426,0.078201,0.039101
0.01955,0.068426,0.078201,0.039101
0.01955,0.068426,0.068426,0.029326
0.01955,0.068426,0.078201,0.029326
0.0097752,0.058651,0.087977,0.029326
0.0097752,0.058651,0.078201,0.01955
0.029326,0.058651,0.078201,0.01955
0.029326,0.048876,0.087977,0.01955
0.029326,0.058651,0.097752,0.0097752
0.029326,0.058651,0.10753,0.0097752
0.029326,0.068426,0.1173,0.0097752
0.029326,0.068426,0.16618,0
0.029326,0.078201,0.17595,0
0.01955,0.087977,0.17595,0
0.01955,0.078201,0.1564,0
0.01955,0.087977,0.16618,0
0.01955,0.087977,0.14663,0
0.0097752,0.078201,0.1564,0
0.01955,0.078201,0.13685,0
0.048876,0.078201,0.12708,0
0.048876,0.078201,0.12708,0
0.068426,0.078201,0.1173,0
0.058651,0.068426,0.12708,0
0.048876,0.058651,0.10753,0.0097752
0.048876,0.058651,0.097752,0.0097752
0.039101,0.048876,0.12708,0.0097752
0.029326,0.048876,0.12708,0.01955
0.029326,0.058651,0.13685,0.0097752
0.029326,0.048876,0.13685,0.0097752
0.029326,0.048876,0.16618,0.0097752
0.029326,0.048876,0.14663,0.0097752
0.029326,0.039101,0.17595,0.01955
0.01955,0.048876,0.18573,0.0097752
0.029326,0.048876,0.17595,0.0097752
0.01955,0.058651,0.21505,0.0097752
0.01955,0.058651,0.20528,0.0097752
0.029326,0.058651,0.21505,0.0097752
0.01955,0.048876,0.2346,0.0097752
0.029326,0.048876,0.22483,0.01955
0.029326,0.039101,0.21505,0.01955
0.01955,0.048876,0.22483,0.01955
0.01955,0.039101,0.20528,0.029326
0.01955,0.039101,0.20528,0.029326
0.029326,0.048876,0.20528,0.029326
0.029326,0.058651,0.2346,0.039101
0.048876,0.068426,0.24438,0.029326
0.048876,0.058651,0.24438,0.048876
0.039101,0.058651,0.2346,0.058651
0.039101,0.068426,0.2346,0.068426
0.039101,0.068426,0.1955,0.058651
0.039101,0.068426,0.18573,0.058651
0.029326,0.078201,0.17595,0.068426
0.029326,0.078201,0.1564,0.068426
0.01955,0.087977,0.16618,0.068426
0.01955,0.087977,0.17595,0.068426
0.0097752,0.078201,0.16618,0.1173
0.0097752,0.078201,0.14663,0.1173
0.0097752,0.087977,0.17595,0.10753
0.01955,0.087977,0.18573,0.097752
0.01955,0.078201,0.18573,0.087977
0.01955,0.078201,0.16618,0.087977
0.01955,0.087977,0.1955,0.078201
0.01955,0.087977,0.18573,0.078201
0.01955,0.087977,0.17595,0.078201
0.01955,0.087977,0.17595,0.097752
0.029326,0.087977,0.1564,0.12708
0.01955,0.087977,0.16618,0.12708
0.029326,0.078201,0.18573,0.1173
0.029326,0.078201,0.16618,0.1173
0.029326,0.078201,0.1564,0.1173
0.029326,0.068426,0.13685,0.10753
0.029326,0.058651,0.13685,0.097752
0.029326,0.039101,0.12708,0.097752
0.029326,0.097752,0.10753,0.087977
0.029326,0.097752,0.1173,0.078201
0.029326,0.087977,0.13685,0.068426
0.029326,0.087977,0.12708,0.068426
0.039101,0.097752,0.1173,0.058651
0.039101,0.097752,0.10753,0.068426
0.039101,0.078201,0.10753,0.058651
0.048876,0.087977,0.10753,0.048876
0.068426,0.097752,0.087977,0.048876
0.058651,0.097752,0.10753,0.048876
0.058651,0.087977,0.097752,0.058651
0.048876,0.097752,0.087977,0.048876
0.048876,0.10753,0.078201,0.039101
0.048876,0.1173,0.087977,0.029326
0.058651,0.12708,0.097752,0.029326
0.058651,0.10753,0.087977,0.029326
0.068426,0.10753,0.078201,0.029326
0.087977,0.10753,0.087977,0.029326
0.087977,0.10753,0.097752,0.01955
0.087977,0.097752,0.078201,0.01955
0.087977,0.087977,0.068426,0.0097752
0.097752,0.087977,0.078201,0.0097752
0.097752,0.078201,0.087977,0.01955
0.087977,0.068426,0.087977,0.039101
0.087977,0.068426,0.087977,0.029326
0.10753,0.058651,0.078201,0.029326
0.12708,0.068426,0.087977,0.01955
0.13685,0.058651,0.097752,0.01955
0.12708,0.058651,0.087977,0.01955
0.20528,0.058651,0.1173,0.01955
0.1955,0.058651,0.12708,0.01955
0.17595,0.058651,0.10753,0.01955
0.17595,0.058651,0.10753,0.048876
0.18573,0.058651,0.097752,0.039101
0.18573,0.048876,0.10753,0.039101
0.1564,0.048876,0.097752,0.029326
0.14663,0.048876,0.087977,0.029326
0.13685,0.039101,0.087977,0.029326
0.1173,0.039101,0.097752,0.029326
0.10753,0.048876,0.078201,0.01955
0.10753,0.058651,0.068426,0.029326
0.10753,0.048876,0.078201,0.01955
0.087977,0.039101,0.087977,0.01955
0.029326,0.2346,0.068426,0.097752
1.2708,1.7302,2.9619,0.59629
0.99707,1.3881,2.3363,0.48876
0.78201,1.1046,1.8377,0.40078
0.61584,0.88954,1.4663,0.33236
0.48876,0.71359,1.1632,0.2737
0.38123,0.58651,0.93842,0.22483
0.30303,0.47898,0.77224,0.18573
0.24438,0.40078,0.67449,0.1564
0.1955,0.33236,0.59629,0.13685
0.16618,0.2737,0.50831,0.1173
0.12708,0.2346,0.43011,0.097752
0.097752,0.20528,0.41056,0.078201
0.087977,0.18573,0.33236,0.068426
0.068426,0.1564,0.30303,0.058651
0.058651,0.13685,0.30303,0.048876
0.048876,0.12708,0.29326,0.039101
0.039101,0.10753,0.28348,0.029326
0.039101,0.087977,0.26393,0.01955
0.029326,0.078201,0.2737,0.039101
0.087977,0.068426,0.2346,0.039101
0.10753,0.048876,0.20528,0.029326
0.10753,0.058651,0.17595,0.029326
0.087977,0.048876,0.1564,0.01955
0.078201,0.048876,0.13685,0.01955
0.068426,0.048876,0.1173,0.01955
0.058651,0.058651,0.12708,0.01955
0.048876,0.048876,0.10753,0.029326
0.039101,0.058651,0.097752,0.01955
0.029326,0.058651,0.087977,0.0097752
0.039101,0.048876,0.087977,0.0097752
0.039101,0.039101,0.10753,0.0097752
0.048876,0.039101,0.10753,0.0097752
0.039101,0.039101,0.10753,0.0097752
0.039101,0.048876,0.097752,0.0097752
0.039101,0.039101,0.097752,0.01955
0.029326,0.048876,0.097752,0.039101
0.029326,0.039101,0.12708,0.048876
0.029326,0.048876,0.1173,0.048876
0.039101,0.048876,0.10753,0.048876
0.058651,0.048876,0.1173,0.048876
0.048876,0.048876,0.10753,0.039101
0.039101,0.058651,0.097752,0.029326
0.029326,0.058651,0.078201,0.029326
0.029326,0.048876,0.097752,0.029326
0.029326,0.039101,0.097752,0.01955
0.029326,0.039101,0.097752,0.01955
0.029326,0.048876,0.087977,0.01955
0.039101,0.048876,0.097752,0.0097752
0.029326,0.039101,0.087977,0.01955
0.039101,0.029326,0.10753,0.048876
0.029326,0.039101,0.097752,0.048876
0.029326,0.039101,0.097752,0.048876
0.029326,0.029326,0.10753,0.058651
0.01955,0.029326,0.097752,0.058651
0.01955,0.029326,0.087977,0.048876
0.01955,0.029326,0.087977,0.039101
0.01955,0.029326,0.097752,0.039101
0.01955,0.029326,0.087977,0.039101
0.0097752,0.029326,0.068426,0.039101
0.01955,0.039101,0.097752,0.039101
0.01955,0.068426,0.087977,0.029326
0.01955,0.068426,0.087977,0.029326
0.01955,0.068426,0.087977,0.029326
0.01955,0.058651,0.097752,0.029326
0.01955,0.058651,0.087977,0.039101
0.029326,0.048876,0.087977,0.048876
0.029326,0.039101,0.087977,0.039101
0.029326,0.039101,0.068426,0.029326
0.039101,0.039101,0.078201,0.029326
0.039101,0.039101,0.078201,0.029326
0.029326,0.029326,0.068426,0.029326
0.048876,0.029326,0.058651,0.01955
0.039101,0.039101,0.068426,0.01955
0.039101,0.029326,0.058651,0.01955
0.039101,0.029326,0.068426,0.029326
0.048876,0.029326,0.078201,0.01955
0.039101,0.029326,0.078201,0.01955
0.029326,0.029326,0.068426,0.01955
0.039101,0.029326,0.068426,0.01955
0.029326,0.048876,0.068426,0.01955
0.029326,0.048876,0.068426,0.01955
0.029326,0.039101,0.068426,0.01955
0.029326,0.039101,0.068426,0.0097752
0.029326,0.039101,0.078201,0.0097752
0.029326,0.029326,0.087977,0
0.01955,0.029326,0.12708,0
0.01955,0.029326,0.1173,0
0.0097752,0.039101,0.10753,0
0.01955,0.039101,0.1173,0
0.01955,0.039101,0.13685,0
0.01955,0.039101,0.13685,0
0.01955,0.048876,0.13685,0.0097752
0.01955,0.039101,0.16618,0.01955
0.01955,0.039101,0.18573,0.01955
0.01955,0.039101,0.17595,0.029326
0.01955,0.039101,0.1564,0.029326
0.029326,0.039101,0.1564,0.029326
0.039101,0.029326,0.14663,0.029326
0.029326,0.039101,0.12708,0.039101
0.029326,0.039101,0.14663,0.039101
0.029326,0.039101,0.13685,0.039101
0.029326,0.039101,0.1564,0.039101
0.039101,0.029326,0.17595,0.048876
0.048876,0.029326,0.18573,0.048876
0.048876,0.039101,0.1955,0.048876
0.048876,0.039101,0.32258,0.068426
0.039101,0.048876,0.41056,0.068426
0.039101,0.058651,0.41056,0.078201
0.039101,0.068426,0.43988,0.087977
0.048876,0.068426,0.43011,0.087977
0.058651,0.058651,0.45943,0.078201
0.068426,0.058651,0.52786,0.087977
0.068426,0.048876,0.47898,0.097752
0.068426,0.048876,0.53763,0.097752
0.058651,0.048876,0.49853,0.13685
0.058651,0.048876,0.47898,0.1564
0.048876,0.048876,0.43988,0.16618
0.058651,0.058651,0.44966,0.16618
0.048876,0.058651,0.40078,0.13685
0.048876,0.048876,0.38123,0.13685
0.058651,0.048876,0.34213,0.17595
0.068426,0.039101,0.34213,0.1955
0.058651,0.039101,0.39101,0.21505
0.048876,0.039101,0.34213,0.20528
0.058651,0.039101,0.31281,0.21505
0.058651,0.039101,0.31281,0.1955
0.068426,0.039101,0.32258,0.18573
0.068426,0.039101,0.29326,0.18573
0.068426,0.039101,0.2737,0.16618
0.068426,0.048876,0.25415,0.1564
0.078201,0.039101,0.24438,0.16618
0.087977,0.039101,0.22483,0.1564
0.087977,0.039101,0.25415,0.13685
0.087977,0.039101,0.20528,0.1173
0.087977,0.039101,0.22483,0.1173
0.10753,0.048876,0.21505,0.1173
0.097752,0.039101,0.18573,0.10753
0.10753,0.048876,0.1564,0.10753
0.10753,0.048876,0.1564,0.1173
0.13685,0.058651,0.14663,0.097752
0.13685,0.058651,0.14663,0.087977
0.16618,0.068426,0.1564,0.078201
0.13685,0.087977,0.14663,0.078201
0.12708,0.097752,0.12708,0.087977
0.14663,0.097752,0.1173,0.078201
0.20528,0.097752,0.1173,0.068426
0.18573,0.087977,0.10753,0.058651
0.14663,0.087977,0.097752,0.048876
0.13685,0.078201,0.1173,0.058651
0.10753,0.078201,0.12708,0.048876
0.097752,0.097752,0.10753,0.048876
0.097752,0.087977,0.1173,0.039101
0.087977,0.078201,0.10753,0.058651
0.078201,0.068426,0.12708,0.048876
0.078201,0.078201,0.13685,0.039101
0.068426,0.068426,0.1173,0.039101
0.058651,0.078201,0.1173,0.029326
0.048876,0.068426,0.12708,0.029326
0.048876,0.058651,0.12708,0.029326
0.058651,0.068426,0.1173,0.01955
0.048876,0.068426,0.12708,0.01955
0.048876,0.058651,0.12708,0.01955
0.058651,0.058651,0.1564,0.0097752
0.058651,0.068426,0.16618,0.0097752
0.058651,0.068426,0.14663,0.0097752
0.048876,0.058651,0.13685,0.0097752
0.039101,0.058651,0.12708,0.0097752
0.039101,0.058651,0.1173,0
0.039101,0.058651,0.10753,0
0.029326,0.058651,0.097752,0
0.029326,0.048876,0.12708,0
0.01955,0.068426,0.13685,0.0097752
0.01955,0.068426,0.12708,0.058651
0.039101,0.068426,0.10753,0.058651
0.048876,0.068426,0.1173,0.058651
0.078201,0.068426,0.1173,0.10753
0.087977,0.058651,0.097752,0.10753
0.078201,0.048876,0.078201,0.10753
0.058651,0.048876,0.068426,0.087977
0.058651,0.048876,0.058651,0.078201
0.058651,0.048876,0.048876,0.068426
0.039101,0.039101,0.058651,0.068426
0.039101,0.039101,0.068426,0.058651
0.029326,0.039101,0.078201,0.048876
0.029326,0.048876,0.068426,0.039101
0.039101,0.039101,0.078201,0.039101
0.039101,0.039101,0.068426,0.029326
0.029326,0.039101,0.068426,0.029326
0.029326,0.029326,0.078201,0.029326
0.029326,0.029326,0.10753,0.029326
0.029326,0.029326,0.087977,0.01955
0.039101,0.039101,0.087977,0.01955
0.087977,0.039101,0.10753,0.01955
0.087977,0.039101,0.097752,0.0097752
0.078201,0.039101,0.10753,0.0097752
0.078201,0.039101,0.10753,0.0097752
0.068426,0.029326,0.097752,0.0097752
0.068426,0.039101,0.087977,0
0.068426,0.039101,0.087977,0
0.058651,0.039101,0.078201,0
0.058651,0.039101,0.068426,0.0097752
0.068426,0.039101,0.078201,0
0.068426,0.039101,0.078201,0.01955
0.058651,0.048876,0.078201,0.01955
0.058651,0.048876,0.068426,0.0097752
0.039101,0.048876,0.058651,0.0097752
0.039101,0.048876,0.058651,0.0097752
0.039101,0.058651,0.048876,0.0097752
0.039101,0.068426,0.048876,0.0097752
0.039101,0.058651,0.058651,0
0.029326,0.068426,0.048876,0
0.048876,0.058651,0.048876,0
0.048876,0.058651,0.058651,0
0.039101,0.058651,0.058651,0
0.039101,0.048876,0.048876,0
0.029326,0.048876,0.048876,0.0097752
0.039101,0.048876,0.039101,0
0.029326,0.039101,0.058651,0
0.029326,0.048876,0.058651,0
0.029326,0.039101,0.058651,0
0.029326,0.039101,0.058651,0
0.029326,0.039101,0.068426,0
0.029326,0.048876,0.068426,0.0097752
0.01955,0.048876,0.058651,0.087977
0.01955,0.048876,0.048876,0.078201
0.01955,0.039101,0.058651,0.058651
0.01955,0.039101,0.048876,0.048876
0.029326,0.048876,0.039101,0.039101
0.01955,0.1173,0.048876,0.029326
0.01955,0.13685,0.048876,0.029326
0.01955,0.12708,0.039101,0.029326
0.0097752,0.1173,0.048876,0.029326
0.0097752,0.097752,0.058651,0.01955
0.0097752,0.087977,0.048876,0.0097752
0.0097752,0.078201,0.068426,0.0097752
0.0097752,0.068426,0.068426,0.0097752
0.0097752,0.058651,0.058651,0.0097752
0.0097752,0.058651,0.068426,0.0097752
0.0097752,0.048876,0.068426,0.0097752
0.01955,0.039101,0.068426,0.0097752
0.01955,0.039101,0.058651,0.0097752
0.01955,0.039101,0.068426,0.0097752
0.01955,0.048876,0.058651,0.0097752
0.0097752,0.048876,0.068426,0.0097752
0.01955,0.039101,0.058651,0.0097752
0.0097752,0.039101,0.048876,0.0097752
0.0097752,0.039101,0.058651,0.0097752
0.0097752,0.039101,0.068426,0.0097752
0.01955,0.029326,0.058651,0.0097752
0.01955,0.029326,0.058651,0.01955
0.01955,0.029326,0.068426,0.029326
0.01955,0.01955,0.068426,0.029326
0.01955,0.039101,0.078201,0.029326
0.01955,0.029326,0.087977,0.029326
0.048876,0.029326,0.087977,0.029326
0.058651,0.029326,0.097752,0.029326
0.058651,0.029326,0.097752,0.029326
0.058651,0.029326,0.087977,0.029326
0.068426,0.039101,0.087977,0.039101
0.058651,0.039101,0.087977,0.029326
0.068426,0.029326,0.097752,0.029326
0.058651,0.039101,0.087977,0.029326
0.048876,0.039101,0.097752,0.029326
0.048876,0.029326,0.087977,0.01955
0.039101,0.029326,0.10753,0.01955
0.039101,0.029326,0.12708,0.0097752
0.029326,0.01955,0.10753,0.0097752
0.039101,0.029326,0.10753,0.0097752
0.039101,0.029326,0.097752,0
0.039101,0.029326,0.097752,0
0.039101,0.029326,0.10753,0
0.048876,0.029326,0.097752,0.0097752
0.048876,0.029326,0.10753,0.0097752
0.039101,0.039101,0.10753,0.01955
0.039101,0.048876,0.097752,0.01955
0.048876,0.048876,0.097752,0.01955
0.058651,0.048876,0.10753,0.01955
0.048876,0.048876,0.1173,0.029326
0.048876,0.058651,0.13685,0.029326
0.039101,0.058651,0.13685,0.029326
0.039101,0.048876,0.13685,0.029326
0.058651,0.058651,0.13685,0.029326
0.068426,0.048876,0.12708,0.039101
0.068426,0.058651,0.1173,0.039101
0.087977,0.058651,0.097752,0.039101
0.097752,0.058651,0.10753,0.058651
0.087977,0.068426,0.10753,0.058651
0.078201,0.058651,0.10753,0.048876
0.078201,0.058651,0.10753,0.048876
0.068426,0.058651,0.10753,0.058651
0.068426,0.058651,0.10753,0.048876
0.078201,0.058651,0.097752,0.058651
0.078201,0.068426,0.097752,0.058651
0.087977,0.058651,0.097752,0.068426
0.087977,0.058651,0.087977,0.058651
0.078201,0.058651,0.087977,0.10753
0.078201,0.058651,0.078201,0.10753
0.10753,0.048876,0.087977,0.10753
0.10753,0.048876,0.087977,0.10753
0.10753,0.048876,0.078201,0.097752
0.097752,0.048876,0.068426,0.097752
0.097752,0.048876,0.078201,0.097752
0.087977,0.058651,0.068426,0.097752
0.087977,0.068426,0.068426,0.097752
0.097752,0.068426,0.068426,0.087977
0.078201,0.078201,0.058651,0.078201
0.087977,0.068426,0.068426,0.087977
0.087977,0.078201,0.078201,0.087977
0.097752,0.068426,0.068426,0.078201
0.097752,0.068426,0.068426,0.097752
0.10753,0.087977,0.058651,0.087977
0.20528,0.078201,0.068426,0.087977
0.18573,0.078201,0.068426,0.097752
0.16618,0.068426,0.068426,0.087977
0.1564,0.068426,0.087977,0.078201
0.14663,0.078201,0.078201,0.068426
0.12708,0.087977,0.078201,0.087977
0.1173,0.1173,0.068426,0.10753
0.10753,0.14663,0.078201,0.1173
0.087977,0.1564,0.068426,0.1173
0.087977,0.1564,0.068426,0.097752
0.078201,0.12708,0.078201,0.087977
0.058651,0.10753,0.068426,0.078201
0.058651,0.10753,0.068426,0.068426
0.078201,0.097752,0.068426,0.068426
0.068426,0.097752,0.068426,0.068426
0.068426,0.087977,0.078201,0.068426
0.048876,0.078201,0.078201,0.068426
0.048876,0.087977,0.068426,0.068426
0.039101,0.068426,0.058651,0.058651
0.029326,0.078201,0.058651,0.058651
0.039101,0.078201,0.058651,0.048876
0.029326,0.078201,0.068426,0.048876
0.029326,0.078201,0.068426,0.068426
0.029326,0.097752,0.068426,0.068426
0.01955,0.087977,0.058651,0.068426
0.01955,0.078201,0.048876,0.048876
0.0097752,0.078201,0.048876,0.048876
0.0097752,0.068426,0.058651,0.058651
0.01955,0.068426,0.048876,0.048876
0.01955,0.058651,0.048876,0.048876
0.01955,0.058651,0.068426,0.039101
0.01955,0.048876,0.068426,0.029326
0.01955,0.048876,0.068426,0.029326
0.01955,0.048876,0.068426,0.01955
0.01955,0.048876,0.068426,0.01955
0.01955,0.039101,0.068426,0.0097752
0.01955,0.048876,0.058651,0.0097752
0.029326,0.039101,0.068426,0.0097752
0.01955,0.048876,0.078201,0.0097752
0.01955,0.039101,0.087977,0.0097752
0.01955,0.039101,0.087977,0.0097752
0.01955,0.039101,0.068426,0.0097752
0.01955,0.039101,0.068426,0.0097752
0.01955,0.048876,0.068426,0.0097752
0.029326,0.039101,0.068426,0.0097752
0.029326,0.039101,0.068426,0.0097752
0.029326,0.039101,0.058651,0.0097752
0.039101,0.039101,0.058651,0
0.078201,0.039101,0.068426,0.01955
0.068426,0.048876,0.068426,0.029326
0.048876,0.048876,0.058651,0.029326
0.039101,0.068426,0.058651,0.029326
0.039101,0.078201,0.058651,0.029326
0.039101,0.087977,0.058651,0.039101
0.039101,0.068426,0.048876,0.039101
0.029326,0.068426,0.058651,0.029326
0.029326,0.068426,0.048876,0.029326
0.039101,0.068426,0.048876,0.029326
0.029326,0.058651,0.058651,0.01955
0.048876,0.058651,0.048876,0.01955
0.048876,0.048876,0.048876,0.01955
0.048876,0.058651,0.058651,0.01955
0.039101,0.058651,0.068426,0.029326
0.029326,0.048876,0.068426,0.029326
0.029326,0.039101,0.058651,0.029326
0.01955,0.029326,0.058651,0.029326
0.01955,0.039101,0.058651,0.029326
0.01955,0.039101,0.068426,0.01955
0.0097752,0.029326,0.058651,0.01955
0.01955,0.029326,0.058651,0.0097752
0.0097752,0.029326,0.058651,0.0097752
0.0097752,0.029326,0.058651,0.0097752
0.01955,0.039101,0.048876,0.0097752
0.0097752,0.029326,0.058651,0.0097752
0.01955,0.029326,0.058651,0.0097752
0.01955,0.029326,0.048876,0.0097752
0.029326,0.048876,0.048876,0.0097752
0.029326,0.048876,0.068426,0
0.029326,0.068426,0.058651,0.0097752
0.029326,0.068426,0.058651,0.029326
0.029326,0.068426,0.058651,0.039101
0.029326,0.058651,0.058651,0.048876
0.029326,0.048876,0.048876,0.039101
0.029326,0.048876,0.058651,0.039101
0.029326,0.039101,0.048876,0.029326
0.029326,0.039101,0.048876,0.029326
0.029326,0.039101,0.048876,0.029326
0.029326,0.039101,0.048876,0.029326
0.029326,0.029326,0.048876,0.068426
0.01955,0.029326,0.048876,0.068426
0.0097752,0.029326,0.058651,0.068426
0.0097752,0.029326,0.048876,0.068426
0.0097752,0.029326,0.078201,0.068426
0.0097752,0.029326,0.068426,0.058651
0.0097752,0.029326,0.068426,0.048876
0,0.029326,0.058651,0.048876
0.0097752,0.029326,0.068426,0.039101
0.0097752,0.029326,0.078201,0.039101
0.0097752,0.029326,0.087977,0.029326
0.0097752,0.01955,0.078201,0.01955
0.0097752,0.01955,0.078201,0.029326
0.0097752,0.01955,0.087977,0.029326
0.0097752,0.01955,0.078201,0.01955
0.0097752,0.029326,0.087977,0.01955
0.0097752,0.029326,0.087977,0.029326
0,0.029326,0.087977,0.029326
0,0.01955,0.078201,0.029326
0,0.029326,0.097752,0.029326
0,0.029326,0.12708,0.039101
0,0.029326,0.12708,0.029326
0,0.029326,0.12708,0.029326
0,0.029326,0.12708,0.029326
0,0.029326,0.13685,0.029326
0,0.029326,0.13685,0.01955
0.0097752,0.029326,0.13685,0.01955
0.0097752,0.029326,0.14663,0.0097752
0.0097752,0.039101,0.16618,0.0097752
0.0097752,0.039101,0.14663,0.0097752
0.0097752,0.029326,0.13685,0.0097752
0.0097752,0.029326,0.12708,0
0.039101,0.029326,0.13685,0
0.039101,0.039101,0.12708,0
0.039101,0.029326,0.12708,0
0.029326,0.029326,0.12708,0
0.029326,0.039101,0.12708,0
0.029326,0.039101,0.10753,0
0.029326,0.039101,0.10753,0
0.029326,0.039101,0.12708,0
0.01955,0.039101,0.12708,0
0.01955,0.039101,0.1173,0.0097752
0.01955,0.039101,0.1173,0.01955
0.01955,0.048876,0.12708,0.029326
0.01955,0.048876,0.10753,0.029326
0.029326,0.058651,0.12708,0.029326
0.039101,0.058651,0.13685,0.029326
0.048876,0.058651,0.13685,0.029326
0.048876,0.058651,0.12708,0.039101
0.039101,0.048876,0.12708,0.039101
0.039101,0.058651,0.13685,0.039101
0.058651,0.058651,0.13685,0.039101
0.058651,0.048876,0.12708,0.048876
0.058651,0.068426,0.12708,0.048876
0.058651,0.068426,0.12708,0.058651
0.058651,0.068426,0.1173,0.058651
0.058651,0.068426,0.097752,0.048876
0.058651,0.058651,0.097752,0.048876
0.058651,0.058651,0.087977,0.058651
0.058651,0.078201,0.087977,0.058651
0.068426,0.068426,0.087977,0.048876
0.078201,0.068426,0.078201,0.078201
0.068426,0.068426,0.068426,0.10753
0.068426,0.058651,0.097752,0.097752
0.078201,0.058651,0.087977,0.087977
0.068426,0.068426,0.078201,0.097752
0.068426,0.058651,0.078201,0.087977
0.058651,0.068426,0.078201,0.078201
0.058651,0.068426,0.078201,0.078201
0.058651,0.058651,0.078201,0.078201
0.048876,0.068426,0.068426,0.078201
0.058651,0.058651,0.068426,0.087977
0.058651,0.058651,0.058651,0.078201
0.078201,0.068426,0.068426,0.097752
0.087977,0.068426,0.078201,0.097752
0.087977,0.078201,0.097752,0.10753
0.087977,0.087977,0.097752,0.10753
0.078201,0.12708,0.078201,0.097752
0.087977,0.1173,0.087977,0.087977
0.087977,0.10753,0.078201,0.078201
0.087977,0.097752,0.087977,0.087977
0.087977,0.087977,0.078201,0.10753
0.068426,0.087977,0.087977,0.10753
0.087977,0.087977,0.078201,0.097752
0.097752,0.087977,0.068426,0.078201
0.1173,0.087977,0.068426,0.078201
0.1173,0.087977,0.087977,0.068426
0.1173,0.097752,0.078201,0.058651
0.10753,0.087977,0.078201,0.048876
0.18573,0.078201,0.068426,0.058651
0.18573,0.078201,0.068426,0.048876
0.1564,0.078201,0.068426,0.048876
0.1564,0.078201,0.058651,0.048876
0.13685,0.087977,0.058651,0.048876
0.14663,0.078201,0.058651,0.039101
0.13685,0.068426,0.048876,0.039101
0.1173,0.078201,0.048876,0.039101
0.13685,0.087977,0.058651,0.029326
0.13685,0.068426,0.068426,0.029326
0.1173,0.068426,0.058651,0.039101
0.1173,0.058651,0.058651,0.039101
0.10753,0.058651,0.048876,0.029326
0.10753,0.048876,0.058651,0.01955
0.10753,0.048876,0.048876,0.029326
0.097752,0.048876,0.058651,0.029326
0.097752,0.058651,0.048876,0.01955
0.087977,0.058651,0.068426,0.01955
0.10753,0.048876,0.068426,0.0097752
0.097752,0.058651,0.068426,0.0097752
0.087977,0.058651,0.068426,0.0097752
0.068426,0.058651,0.058651,0.0097752
0.068426,0.068426,0.068426,0
0.058651,0.068426,0.068426,0
0.058651,0.068426,0.068426,0.0097752
0.048876,0.068426,0.058651,0
0.039101,0.058651,0.068426,0
0.029326,0.078201,0.058651,0.0097752
0.029326,0.078201,0.068426,0.0097752
0.029326,0.078201,0.058651,0.0097752
0.01955,0.078201,0.058651,0.068426
0.01955,0.087977,0.058651,0.068426
0.01955,0.078201,0.068426,0.068426
0.01955,0.087977,0.058651,0.078201
0.0097752,0.068426,0.058651,0.10753
0.0097752,0.068426,0.048876,0.097752
0.01955,0.058651,0.058651,0.087977
0.01955,0.058651,0.058651,0.087977
0.01955,0.048876,0.058651,0.068426
0.01955,0.058651,0.058651,0.058651
0.01955,0.048876,0.058651,0.048876
0.01955,0.048876,0.068426,0.039101
0.0097752,0.048876,0.058651,0.039101
0.01955,0.048876,0.068426,0.029326
0.01955,0.048876,0.068426,0.029326
0.01955,0.048876,0.068426,0.029326
0.01955,0.039101,0.068426,0.029326
0.01955,0.039101,0.058651,0.029326
0.01955,0.039101,0.058651,0.029326
0.0097752,0.039101,0.068426,0.029326
0.10753,0.039101,0.068426,0.029326
0.087977,0.039101,0.068426,0.029326
0.087977,0.039101,0.068426,0.01955
0.068426,0.039101,0.078201,0.029326
0.078201,0.058651,0.078201,0.01955
0.068426,0.058651,0.078201,0.0097752
0.068426,0.12708,0.068426,0.01955
0.087977,0.13685,0.087977,0.0097752
0.068426,0.12708,0.097752,0.01955
0.058651,0.13685,0.087977,0.0097752
0.058651,0.1173,0.097752,0.0097752
0.048876,0.1173,0.087977,0.0097752
0.048876,0.10753,0.078201,0.0097752
0.039101,0.10753,0.087977,0.0097752
0.048876,0.097752,0.087977,0
0.048876,0.087977,0.087977,0
0.048876,0.068426,0.087977,0
0.039101,0.058651,0.078201,0
0.048876,0.058651,0.078201,0
0.048876,0.048876,0.078201,0.0097752
0.039101,0.048876,0.078201,0.029326
0.039101,0.058651,0.068426,0.039101
0.039101,0.048876,0.068426,0.039101
0.029326,0.068426,0.068426,0.039101
0.029326,0.058651,0.068426,0.039101
0.029326,0.058651,0.078201,0.029326
0.01955,0.048876,0.068426,0.029326
0.029326,0.039101,0.078201,0.01955
0.01955,0.048876,0.097752,0.029326
0.01955,0.039101,0.097752,0.087977
0.01955,0.039101,0.097752,0.087977
0.01955,0.039101,0.087977,0.087977
0.01955,0.039101,0.078201,0.068426
0.01955,0.039101,0.078201,0.068426
0.01955,0.048876,0.078201,0.058651
0.01955,0.048876,0.078201,0.048876
0.01955,0.048876,0.068426,0.039101
0.01955,0.048876,0.078201,0.029326
0.0097752,0.048876,0.078201,0.029326
0.0097752,0.048876,0.078201,0.029326
0.0097752,0.048876,0.068426,0.029326
0.0097752,0.048876,0.058651,0.01955
0.0097752,0.048876,0.068426,0.01955
0.01955,0.048876,0.078201,0.01955
0.01955,0.048876,0.078201,0.01955
0.01955,0.048876,0.068426,0.01955
0.01955,0.048876,0.078201,0.029326
0.01955,0.058651,0.078201,0.029326
0.01955,0.068426,0.068426,0.029326
0.0097752,0.068426,0.068426,0.029326
0.0097752,0.068426,0.068426,0.029326
0.01955,0.068426,0.078201,0.029326
0.0097752,0.078201,0.078201,0.039101
0.0097752,0.068426,0.078201,0.039101
0.0097752,0.068426,0.078201,0.029326
0.0097752,0.068426,0.097752,0.029326
0.0097752,0.068426,0.087977,0.029326
0.0097752,0.068426,0.097752,0.029326
0.0097752,0.058651,0.10753,0.01955
0.0097752,0.058651,0.10753,0.01955
0.0097752,0.058651,0.097752,0.01955
0.0097752,0.058651,0.10753,0.0097752
0,0.068426,0.10753,0.0097752
0.0097752,0.058651,0.097752,0.0097752
0.0097752,0.058651,0.10753,0.0097752
0.01955,0.068426,0.1173,0.0097752
0.01955,0.068426,0.1173,0.01955
0.048876,0.068426,0.10753,0.01955
0.048876,0.068426,0.1173,0.029326
0.048876,0.068426,0.097752,0.029326
0.068426,0.068426,0.1173,0.039101
0.068426,0.078201,0.12708,0.029326
0.058651,0.068426,0.12708,0.029326
0.048876,0.068426,0.1173,0.068426
0.039101,0.078201,0.10753,0.058651
0.039101,0.078201,0.12708,0.048876
0.039101,0.068426,0.1173,0.048876
0.039101,0.068426,0.1173,0.048876
0.029326,0.078201,0.1173,0.048876
0.029326,0.078201,0.1173,0.039101
0.039101,0.068426,0.1173,0.039101
0.039101,0.068426,0.10753,0.039101
0.039101,0.078201,0.097752,0.039101
0.048876,0.068426,0.087977,0.097752
0.048876,0.068426,0.097752,0.10753
0.058651,0.068426,0.087977,0.097752
0.058651,0.068426,0.078201,0.10753
0.068426,0.068426,0.068426,0.087977
0.068426,0.097752,0.058651,0.087977
0.058651,0.12708,0.068426,0.087977
0.058651,0.13685,0.048876,0.087977
0.058651,0.14663,0.048876,0.097752
0.058651,0.14663,0.048876,0.097752
0.058651,0.1173,0.058651,0.097752
0.048876,0.1173,0.058651,0.087977
0.048876,0.10753,0.068426,0.10753
0.048876,0.097752,0.068426,0.10753
0.039101,0.087977,0.068426,0.10753
0.048876,0.087977,0.068426,0.10753
0.068426,0.087977,0.078201,0.10753
0.068426,0.078201,0.078201,0.097752
0.058651,0.078201,0.078201,0.097752
0.058651,0.078201,0.087977,0.097752
0.058651,0.068426,0.078201,0.097752
0.058651,0.078201,0.078201,0.087977
0.078201,0.078201,0.087977,0.078201
0.078201,0.078201,0.087977,0.087977
0.068426,0.078201,0.097752,0.078201
0.078201,0.078201,0.1173,0.068426
0.068426,0.087977,0.1173,0.068426
0.068426,0.078201,0.10753,0.058651
0.068426,0.078201,0.097752,0.058651
0.068426,0.068426,0.1173,0.048876
0.068426,0.068426,0.097752,0.048876
0.078201,0.058651,0.087977,0.048876
0.087977,0.068426,0.097752,0.048876
0.087977,0.058651,0.087977,0.048876
0.087977,0.048876,0.078201,0.039101
0.10753,0.048876,0.068426,0.039101
0.1564,0.048876,0.058651,0.029326
0.16618,0.048876,0.058651,0.029326
0.13685,0.058651,0.068426,0.029326
0.1173,0.058651,0.068426,0.029326
0.1173,0.058651,0.068426,0.01955
0.10753,0.048876,0.078201,0.01955
0.087977,0.039101,0.078201,0.01955
0.078201,0.039101,0.068426,0.01955
0.087977,0.029326,0.068426,0.01955
0.087977,0.039101,0.058651,0.01955
0.087977,0.039101,0.068426,0.01955
0.097752,0.039101,0.078201,0.0097752
0.087977,0.039101,0.078201,0.0097752
0.087977,0.039101,0.078201,0.0097752
0.087977,0.048876,0.078201,0.0097752
0.097752,0.039101,0.097752,0
0.097752,0.039101,0.087977,0
0.13685,0.048876,0.078201,0
0.1564,0.048876,0.078201,0
0.13685,0.039101,0.087977,0.0097752
0.14663,0.039101,0.087977,0.0097752
0.13685,0.039101,0.068426,0.0097752
0.14663,0.039101,0.068426,0.0097752
0.13685,0.039101,0.068426,0.039101
0.1173,0.039101,0.068426,0.039101
0.10753,0.039101,0.058651,0.029326
0.087977,0.039101,0.048876,0.029326
0.087977,0.039101,0.039101,0.029326
0.078201,0.058651,0.058651,0.01955
0.068426,0.068426,0.048876,0.029326
0.068426,0.058651,0.058651,0.01955
0.058651,0.058651,0.039101,0.029326
0.058651,0.058651,0.039101,0.029326
0.058651,0.058651,0.048876,0.029326
0.048876,0.058651,0.068426,0.029326
0.048876,0.048876,0.058651,0.029326
0.048876,0.048876,0.048876,0.01955
0.039101,0.048876,0.058651,0.01955
0.029326,0.048876,0.048876,0.01955
0.029326,0.048876,0.048876,0.01955
0.029326,0.058651,0.048876,0.01955
0.029326,0.048876,0.039101,0.01955
0.029326,0.048876,0.048876,0.0097752
0.01955,0.048876,0.048876,0.0097752
0.029326,0.048876,0.058651,0.01955
0.029326,0.039101,0.048876,0.01955
0.029326,0.029326,0.068426,0.0097752
0.039101,0.029326,0.058651,0.01955
0.029326,0.039101,0.048876,0.01955
0.039101,0.039101,0.048876,0.01955
0.029326,0.068426,0.048876,0.0097752
0.10753,0.078201,0.058651,0.0097752
0.10753,0.058651,0.068426,0.0097752
0.097752,0.058651,0.058651,0.0097752
0.097752,0.048876,0.058651,0
0.087977,0.048876,0.058651,0.0097752
0.078201,0.048876,0.058651,0
0.068426,0.039101,0.048876,0.0097752
0.068426,0.048876,0.048876,0.0097752
0.078201,0.039101,0.048876,0.0097752
0.087977,0.039101,0.058651,0.0097752
0.068426,0.039101,0.068426,0.0097752
0.058651,0.039101,0.058651,0.01955
0.048876,0.029326,0.048876,0.039101
0.048876,0.029326,0.058651,0.039101
0.039101,0.029326,0.048876,0.048876
0.029326,0.029326,0.048876,0.058651
0.029326,0.029326,0.039101,0.048876
0.029326,0.029326,0.048876,0.039101
0.029326,0.029326,0.058651,0.039101
0.029326,0.01955,0.048876,0.029326
0.039101,0.01955,0.048876,0.01955
0.029326,0.01955,0.048876,0.01955
0.029326,0.01955,0.048876,0.039101
0.039101,0.029326,0.058651,0.078201
0.029326,0.01955,0.058651,0.068426
0.029326,0.01955,0.058651,0.068426
0.029326,0.029326,0.068426,0.068426
0.029326,0.01955,0.087977,0.058651
0.029326,0.01955,0.078201,0.068426
0.029326,0.01955,0.068426,0.058651
0.01955,0.01955,0.068426,0.048876
0.01955,0.029326,0.068426,0.039101
0.01955,0.029326,0.078201,0.039101
0.0097752,0.048876,0.087977,0.029326
0.0097752,0.039101,0.078201,0.01955
0.01955,0.039101,0.078201,0.01955
0.01955,0.039101,0.078201,0.029326
0.01955,0.048876,0.068426,0.029326
0.01955,0.048876,0.068426,0.039101
0.01955,0.048876,0.068426,0.048876
0.01955,0.048876,0.068426,0.048876
0.01955,0.058651,0.087977,0.048876
0.01955,0.068426,0.078201,0.048876
0.01955,0.078201,0.078201,0.029326
0.01955,0.068426,0.058651,0.039101
0.0097752,0.068426,0.068426,0.029326
0.0097752,0.058651,0.068426,0.029326
0.0097752,0.048876,0.078201,0.01955
0.0097752,0.048876,0.087977,0.01955
0.0097752,0.048876,0.1173,0.0097752
0.0097752,0.048876,0.10753,0.0097752
0.0097752,0.039101,0.097752,0.0097752
0.0097752,0.048876,0.097752,0
0.0097752,0.048876,0.10753,0
0.01955,0.048876,0.1173,0
0.0097752,0.039101,0.10753,0
0.0097752,0.048876,0.10753,0
0.0097752,0.039101,0.1173,0
0.01955,0.048876,0.12708,0
0.01955,0.039101,0.18573,0.0097752
0.01955,0.039101,0.17595,0.0097752
0.01955,0.039101,0.18573,0.0097752
0.01955,0.048876,0.18573,0.0097752
0.01955,0.048876,0.17595,0.0097752
0.01955,0.048876,0.17595,0.0097752
0.01955,0.048876,0.17595,0.0097752
0.01955,0.039101,0.1564,0.029326
0.0097752,0.039101,0.18573,0.048876
0.0097752,0.039101,0.16618,0.048876
0.01955,0.029326,0.17595,0.078201
0.01955,0.039101,0.16618,0.078201
0.029326,0.039101,0.1564,0.078201
0.029326,0.029326,0.1564,0.087977
0.029326,0.039101,0.13685,0.097752
0.029326,0.048876,0.13685,0.10753
0.01955,0.048876,0.12708,0.12708
0.01955,0.039101,0.12708,0.12708
0.029326,0.039101,0.1564,0.17595
0.029326,0.048876,0.14663,0.21505
0.039101,0.058651,0.14663,0.21505
0.039101,0.058651,0.14663,0.22483
0.048876,0.068426,0.18573,0.22483
0.039101,0.097752,0.16618,0.22483
0.048876,0.097752,0.16618,0.21505
0.048876,0.087977,0.18573,0.24438
0.039101,0.078201,0.1564,0.25415
0.048876,0.068426,0.16618,0.24438
0.048876,0.068426,0.14663,0.2346
0.048876,0.068426,0.12708,0.26393
0.048876,0.058651,0.097752,0.24438
0.068426,0.048876,0.078201,0.25415
0.068426,0.048876,0.068426,0.2737
0.068426,0.048876,0.078201,0.2737
0.058651,0.048876,0.068426,0.25415
0.058651,0.048876,0.058651,0.24438
0.058651,0.058651,0.078201,0.24438
0.058651,0.058651,0.097752,0.24438
0.058651,0.068426,0.087977,0.28348
0.068426,0.058651,0.087977,0.2737
0.058651,0.058651,0.087977,0.26393
0.058651,0.058651,0.097752,0.2346
0.058651,0.058651,0.097752,0.25415
0.068426,0.058651,0.097752,0.24438
0.087977,0.058651,0.097752,0.24438
0.068426,0.058651,0.10753,0.25415
0.078201,0.058651,0.10753,0.25415
0.097752,0.058651,0.097752,0.22483
0.10753,0.048876,0.10753,0.20528
0.097752,0.048876,0.1173,0.1955
0.097752,0.058651,0.10753,0.18573
0.14663,0.048876,0.097752,0.17595
0.13685,0.058651,0.097752,0.1564
0.14663,0.058651,0.097752,0.1564
0.1564,0.048876,0.097752,0.12708
0.1955,0.048876,0.097752,0.10753
0.20528,0.048876,0.097752,0.097752
0.21505,0.048876,0.097752,0.078201
0.18573,0.048876,0.087977,0.068426
0.17595,0.039101,0.078201,0.058651
0.1564,0.039101,0.068426,0.048876
0.14663,0.048876,0.097752,0.039101
0.12708,0.048876,0.087977,0.029326
0.14663,0.039101,0.087977,0.029326
0.14663,0.039101,0.078201,0.029326
0.14663,0.048876,0.068426,0.029326
0.13685,0.048876,0.068426,0.01955
0.1173,0.048876,0.068426,0.01955
0.10753,0.039101,0.068426,0.01955
0.097752,0.039101,0.087977,0.01955
0.097752,0.048876,0.087977,0.01955
0.087977,0.048876,0.078201,0.01955
0.068426,0.039101,0.078201,0.01955
0.068426,0.039101,0.078201,0.01955
0.078201,0.048876,0.068426,0.0097752
0.068426,0.048876,0.058651,0.0097752
0.068426,0.039101,0.068426,0.0097752
0.058651,0.039101,0.058651,0.0097752
0.048876,0.039101,0.058651,0
0.039101,0.039101,0.048876,0
0.039101,0.039101,0.058651,0
0.039101,0.039101,0.058651,0
0.029326,0.039101,0.058651,0.097752
0.029326,0.048876,0.058651,0.12708
0.029326,0.029326,0.048876,0.17595
0.029326,0.029326,0.039101,0.1564
0.029326,0.029326,0.048876,0.12708
0.029326,0.039101,0.048876,0.10753
0.01955,0.039101,0.048876,0.097752
0.01955,0.039101,0.058651,0.087977
0.01955,0.039101,0.048876,0.078201
0.0097752,0.039101,0.048876,0.068426
0.01955,0.039101,0.048876,0.058651
0.01955,0.048876,0.048876,0.048876
0.01955,0.039101,0.048876,0.039101
0.01955,0.039101,0.068426,0.029326
0.0097752,0.039101,0.058651,0.029326
0.01955,0.048876,0.048876,0.01955
0.01955,0.039101,0.058651,0.01955
0.01955,0.039101,0.068426,0.01955
0.01955,0.039101,0.078201,0.0097752
0.029326,0.039101,0.068426,0.0097752
0.029326,0.039101,0.068426,0.0097752
0.029326,0.039101,0.078201,0.0097752
0.029326,0.039101,0.068426,0.0097752
0.1173,0.039101,0.058651,0.0097752
0.1173,0.039101,0.068426,0.0097752
0.10753,0.039101,0.058651,0.0097752
0.087977,0.029326,0.048876,0.0097752
0.078201,0.029326,0.048876,0.0097752
0.068426,0.029326,0.039101,0.0097752
0.048876,0.029326,0.048876,0.0097752
0.048876,0.029326,0.058651,0
0.048876,0.039101,0.048876,0.0097752
0.048876,0.039101,0.039101,0.0097752
0.048876,0.039101,0.039101,0.0097752
0.039101,0.029326,0.058651,0.0097752
0.029326,0.029326,0.058651,0.0097752
0.029326,0.039101,0.039101,0.01955
0.029326,0.029326,0.058651,0.01955
0.01955,0.029326,0.048876,0.048876
0.029326,0.029326,0.058651,0.068426
0.01955,0.029326,0.048876,0.068426
0.029326,0.01955,0.048876,0.058651
0.029326,0.029326,0.039101,0.048876
0.01955,0.029326,0.058651,0.039101
0.029326,0.029326,0.058651,0.039101
0.01955,0.029326,0.048876,0.029326
0.029326,0.029326,0.058651,0.01955
0.029326,0.029326,0.068426,0.029326
0.029326,0.01955,0.068426,0.029326
0.01955,0.029326,0.078201,0.029326
0.01955,0.029326,0.087977,0.029326
0.01955,0.029326,0.078201,0.029326
0.039101,0.029326,0.078201,0.029326
0.039101,0.01955,0.068426,0.01955
0.029326,0.01955,0.068426,0.01955
0.029326,0.029326,0.068426,0.01955
0.029326,0.029326,0.068426,0.01955
0.029326,0.029326,0.068426,0.0097752
0.029326,0.029326,0.068426,0.01955
0.029326,0.01955,0.078201,0.01955
0.01955,0.029326,0.058651,0.01955
0.01955,0.029326,0.068426,0.01955
0.01955,0.029326,0.058651,0.0097752
0.01955,0.039101,0.058651,0.029326
0.01955,0.039101,0.068426,0.068426
0.01955,0.048876,0.068426,0.068426
0.01955,0.039101,0.068426,0.048876
0.01955,0.039101,0.058651,0.058651
0.01955,0.039101,0.048876,0.048876
0.01955,0.048876,0.058651,0.048876
0.01955,0.048876,0.068426,0.039101
0.0097752,0.048876,0.068426,0.039101
0.0097752,0.048876,0.078201,0.029326
0.01955,0.048876,0.078201,0.01955
0.01955,0.048876,0.087977,0.029326
0.0097752,0.048876,0.078201,0.029326
0.0097752,0.048876,0.068426,0.01955
0.0097752,0.048876,0.068426,0.01955
0.0097752,0.048876,0.058651,0.01955
