0.13685,0.058651,0.13685,0.12708
1.0948,1.0557,0.14663,0.75269
0.86999,0.83089,0.13685,1.0362
0.70381,0.68426,0.12708,1.1535
0.58651,0.54741,0.12708,1.2023
0.47898,0.43988,0.12708,1.1241
0.39101,0.37146,0.12708,0.91887
0.32258,0.30303,0.13685,0.76246
0.2737,0.24438,0.14663,0.63539
0.22483,0.21505,0.14663,0.52786
0.1955,0.17595,0.14663,0.43988
0.20528,0.16618,0.13685,0.38123
0.17595,0.14663,0.13685,0.33236
0.17595,0.12708,0.1173,0.2737
0.17595,0.10753,0.1173,0.2346
0.1564,0.10753,0.1173,0.21505
0.13685,0.087977,0.1173,0.1955
0.12708,0.078201,0.097752,0.18573
0.10753,0.078201,0.097752,0.18573
0.10753,0.058651,0.087977,0.20528
0.10753,0.078201,0.087977,0.21505
0.097752,0.068426,0.087977,0.20528
0.087977,0.078201,0.087977,0.18573
0.078201,0.078201,0.087977,0.17595
0.068426,0.068426,0.078201,0.1564
0.078201,0.068426,0.078201,0.1564
0.068426,0.058651,0.078201,0.1564
0.068426,0.058651,0.097752,0.14663
0.058651,0.058651,0.087977,0.12708
0.058651,0.058651,0.087977,0.1173
0.048876,0.058651,0.087977,0.1173
0.058651,0.058651,0.097752,0.10753
0.048876,0.058651,0.087977,0.10753
0.048876,0.068426,0.097752,0.12708
0.039101,0.058651,0.097752,0.12708
0.039101,0.058651,0.087977,0.12708
0.039101,0.048876,0.078201,0.16618
0.029326,0.048876,0.087977,0.16618
0.029326,0.048876,0.068426,0.1564
0.01955,0.048876,0.068426,0.16618
0.029326,0.048876,0.068426,0.14663
0.029326,0.048876,0.068426,0.17595
0.01955,0.039101,0.078201,0.20528
0.039101,0.039101,0.068426,0.1955
0.029326,0.039101,0.078201,0.1955
0.029326,0.039101,0.068426,0.21505
0.048876,0.029326,0.068426,0.1955
0.058651,0.029326,0.058651,0.17595
0.068426,0.029326,0.068426,0.18573
0.048876,0.029326,0.078201,0.18573
0.048876,0.039101,0.078201,0.16618
0.048876,0.048876,0.087977,0.14663
0.039101,0.048876,0.097752,0.13685
0.039101,0.058651,0.097752,0.12708
0.048876,0.058651,0.087977,0.10753
0.058651,0.048876,0.078201,0.097752
0.048876,0.048876,0.087977,0.097752
0.058651,0.039101,0.078201,0.078201
0.068426,0.039101,0.087977,0.068426
0.068426,0.039101,0.097752,0.068426
0.068426,0.039101,0.097752,0.068426
0.058651,0.039101,0.087977,0.058651
0.048876,0.029326,0.068426,0.048876
0.048876,0.039101,0.068426,0.048876
0.048876,0.039101,0.068426,0.039101
0.048876,0.039101,0.068426,0.039101
0.048876,0.039101,0.058651,0.039101
0.039101,0.039101,0.068426,0.029326
0.039101,0.048876,0.068426,0.029326
0.058651,0.048876,0.058651,0.039101
0.078201,0.058651,0.058651,0.029326
0.078201,0.058651,0.068426,0.029326
0.068426,0.068426,0.068426,0.029326
0.068426,0.078201,0.078201,0.029326
0.068426,0.087977,0.078201,0.029326
0.068426,0.097752,0.087977,0.01955
0.058651,0.097752,0.087977,0.01955
0.058651,0.097752,0.078201,0.0097752
0.048876,0.097752,0.087977,0.01955
0.048876,0.10753,0.097752,0.01955
0.048876,0.097752,0.12708,0.01955
0.068426,0.10753,0.12708,0.0097752
0.078201,0.10753,0.12708,0.0097752
0.078201,0.10753,0.12708,0.0097752
0.078201,0.1173,0.13685,0.01955
0.068426,0.10753,0.1564,0.01955
0.058651,0.1173,0.16618,0.01955
0.058651,0.1173,0.1564,0.029326
0.058651,0.1173,0.1564,0.029326
0.058651,0.1173,0.14663,0.039101
0.068426,0.14663,0.1564,0.048876
0.078201,0.1564,0.17595,0.058651
0.078201,0.16618,0.18573,0.048876
0.087977,0.18573,0.20528,0.039101
0.087977,0.20528,0.20528,0.029326
0.087977,0.21505,0.25415,0.029326
0.10753,0.22483,0.25415,0.039101
0.10753,0.22483,0.2346,0.039101
0.10753,0.25415,0.30303,0.029326
0.097752,0.26393,0.38123,0.029326
0.097752,0.2737,0.54741,0.029326
0.10753,0.25415,0.81134,0.029326
0.13685,0.24438,0.85044,0.039101
0.1564,0.22483,0.86022,0.039101
0.16618,0.22483,0.93842,0.029326
0.1955,0.20528,0.97752,0.039101
0.24438,0.20528,0.96774,0.039101
0.26393,0.1955,0.92864,0.048876
0.29326,0.18573,0.86022,0.039101
0.26393,0.1955,0.86022,0.029326
0.24438,0.18573,0.80156,0.029326
0.24438,0.16618,0.82111,0.01955
0.25415,0.18573,0.84066,0.01955
0.26393,0.18573,0.83089,0.01955
0.2737,0.18573,0.80156,0.029326
0.29326,0.16618,0.77224,0.029326
0.26393,0.1564,0.74291,0.029326
0.2346,0.13685,0.70381,0.029326
0.2346,0.1173,0.66471,0.039101
0.21505,0.1173,0.65494,0.048876
0.1955,0.1173,0.54741,0.048876
0.17595,0.1173,0.50831,0.058651
0.18573,0.10753,0.46921,0.058651
0.17595,0.097752,0.41056,0.058651
0.16618,0.087977,0.36168,0.078201
0.1564,0.087977,0.31281,0.078201
0.14663,0.087977,0.29326,0.078201
0.14663,0.087977,0.2737,0.068426
0.14663,0.087977,0.28348,0.068426
0.12708,0.097752,0.24438,0.1173
0.10753,0.097752,0.22483,0.13685
0.10753,0.097752,0.22483,0.13685
0.087977,0.097752,0.22483,0.1564
0.087977,0.097752,0.20528,0.17595
0.078201,0.087977,0.1955,0.18573
0.078201,0.087977,0.16618,0.18573
0.078201,0.078201,0.16618,0.1955
0.087977,0.078201,0.20528,0.17595
0.078201,0.087977,0.16618,0.17595
0.068426,0.087977,0.13685,0.20528
0.078201,0.078201,0.14663,0.1955
0.068426,0.068426,0.14663,0.20528
0.048876,0.078201,0.13685,0.20528
0.048876,0.078201,0.13685,0.18573
0.068426,0.068426,0.14663,0.18573
0.078201,0.068426,0.12708,0.17595
0.058651,0.078201,0.12708,0.16618
0.048876,0.068426,0.12708,0.1564
0.048876,0.058651,0.13685,0.18573
0.039101,0.058651,0.14663,0.17595
0.068426,0.048876,0.1564,0.1564
0.058651,0.048876,0.16618,0.1564
0.068426,0.058651,0.14663,0.1564
0.048876,0.058651,0.14663,0.13685
0.048876,0.068426,0.13685,0.1173
0.048876,0.068426,0.12708,0.10753
0.039101,0.068426,0.12708,0.10753
0.029326,0.068426,0.10753,0.1173
0.039101,0.058651,0.10753,0.10753
0.048876,0.058651,0.10753,0.087977
0.039101,0.058651,0.10753,0.087977
0.039101,0.068426,0.1173,0.097752
0.039101,0.068426,0.13685,0.087977
0.048876,0.068426,0.1173,0.078201
0.039101,0.058651,0.10753,0.087977
0.039101,0.058651,0.10753,0.087977
0.039101,0.068426,0.10753,0.087977
0.039101,0.058651,0.087977,0.068426
0.039101,0.068426,0.087977,0.068426
0.029326,0.068426,0.087977,0.068426
0.039101,0.048876,0.097752,0.078201
0.029326,0.048876,0.10753,0.058651
0.048876,0.039101,0.10753,0.058651
0.029326,0.048876,0.10753,0.048876
0.029326,0.058651,0.10753,0.048876
0.039101,0.068426,0.10753,0.048876
0.039101,0.058651,0.13685,0.048876
0.039101,0.058651,0.1173,0.039101
0.029326,0.068426,0.10753,0.039101
0.029326,0.068426,0.097752,0.029326
0.029326,0.058651,0.097752,0.029326
0.01955,0.058651,0.1173,0.039101
0.01955,0.048876,0.13685,0.039101
0.01955,0.039101,0.13685,0.029326
0.029326,0.039101,0.1173,0.039101
0.029326,0.029326,0.1173,0.039101
0.01955,0.039101,0.13685,0.039101
0.01955,0.029326,0.14663,0.029326
0.0097752,0.029326,0.14663,0.029326
0.0097752,0.039101,0.12708,0.029326
0.0097752,0.039101,0.1173,0.01955
0.01955,0.039101,0.1173,0.01955
0.0097752,0.039101,0.10753,0.01955
0.0097752,0.048876,0.10753,0.01955
0.0097752,0.048876,0.087977,0.029326
0.0097752,0.058651,0.087977,0.029326
0.0097752,0.058651,0.087977,0.029326
0.01955,0.068426,0.097752,0.01955
0.01955,0.078201,0.10753,0.0097752
0.01955,0.068426,0.10753,0.0097752
0.01955,0.078201,0.097752,0.0097752
0.01955,0.068426,0.12708,0.0097752
0.029326,0.078201,0.1173,0.0097752
0.029326,0.078201,0.097752,0.0097752
0.029326,0.078201,0.087977,0
0.029326,0.087977,0.078201,0.0097752
0.058651,0.097752,0.068426,0.0097752
0.058651,0.1173,0.068426,0.0097752
0.058651,0.12708,0.068426,0.0097752
0.068426,0.13685,0.078201,0.01955
0.068426,0.14663,0.078201,0.029326
0.068426,0.13685,0.078201,0.029326
0.058651,0.1564,0.068426,0.029326
0.058651,0.1564,0.068426,0.029326
0.048876,0.16618,0.058651,0.01955
0.058651,0.18573,0.048876,0.0097752
0.078201,0.2737,0.058651,0.0097752
0.087977,0.35191,0.078201,0.0097752
0.097752,0.34213,0.078201,0.01955
0.097752,0.37146,0.068426,0.01955
0.097752,0.41056,0.058651,0.01955
0.10753,0.38123,0.068426,0.0097752
0.13685,0.35191,0.058651,0.01955
0.1173,0.32258,0.048876,0.01955
0.12708,0.29326,0.068426,0.01955
0.10753,0.28348,0.058651,0.0097752
0.1173,0.25415,0.058651,0.01955
0.10753,0.28348,0.068426,0.029326
0.12708,0.25415,0.058651,0.029326
0.12708,0.2346,0.048876,0.029326
0.1564,0.2346,0.058651,0.029326
0.17595,0.24438,0.058651,0.01955
0.1564,0.2346,0.058651,0.039101
0.14663,0.20528,0.058651,0.048876
0.13685,0.17595,0.058651,0.048876
0.14663,0.18573,0.048876,0.058651
0.13685,0.16618,0.058651,0.068426
0.12708,0.1564,0.058651,0.058651
0.14663,0.14663,0.048876,0.048876
0.1173,0.13685,0.039101,0.048876
0.1173,0.12708,0.039101,0.048876
0.1173,0.1173,0.039101,0.058651
0.10753,0.1173,0.029326,0.078201
0.10753,0.10753,0.029326,0.068426
0.097752,0.10753,0.029326,0.087977
0.087977,0.1173,0.029326,0.087977
0.078201,0.10753,0.029326,0.087977
0.087977,0.10753,0.029326,0.087977
0.078201,0.10753,0.029326,0.087977
0.068426,0.10753,0.039101,0.087977
0.068426,0.10753,0.029326,0.097752
0.068426,0.097752,0.039101,0.12708
0.087977,0.087977,0.039101,0.13685
0.078201,0.087977,0.048876,0.12708
0.078201,0.087977,0.058651,0.12708
0.068426,0.097752,0.068426,0.13685
0.058651,0.097752,0.068426,0.1564
0.048876,0.097752,0.097752,0.13685
0.039101,0.097752,0.10753,0.13685
0.039101,0.10753,0.1173,0.1173
0.048876,0.097752,0.12708,0.12708
0.048876,0.10753,0.10753,0.14663
0.039101,0.087977,0.1173,0.16618
0.039101,0.078201,0.14663,0.16618
0.029326,0.087977,0.1564,0.1564
0.048876,0.068426,0.21505,0.14663
0.048876,0.078201,0.2346,0.13685
0.048876,0.078201,0.26393,0.12708
0.039101,0.087977,0.41056,0.1173
0.039101,0.068426,0.46921,0.1173
0.039101,0.068426,0.48876,0.10753
0.039101,0.058651,0.52786,0.087977
0.039101,0.068426,0.50831,0.087977
0.039101,0.078201,0.48876,0.097752
0.039101,0.078201,0.51808,0.097752
0.029326,0.087977,0.53763,0.087977
0.029326,0.078201,0.59629,0.097752
0.029326,0.058651,0.74291,0.087977
0.029326,0.068426,0.67449,0.097752
0.029326,0.068426,0.77224,0.078201
0.039101,0.068426,0.79179,0.078201
0.029326,0.078201,0.77224,0.068426
0.029326,0.078201,0.76246,0.068426
0.01955,0.078201,0.67449,0.068426
0.01955,0.068426,0.64516,0.058651
0.0097752,0.078201,0.68426,0.058651
0.0097752,0.078201,0.59629,0.058651
0.01955,0.078201,0.55718,0.058651
0.01955,0.078201,0.54741,0.058651
0.01955,0.068426,0.55718,0.058651
0.01955,0.068426,0.47898,0.068426
0.01955,0.058651,0.46921,0.058651
0.01955,0.048876,0.41056,0.068426
0.029326,0.058651,0.36168,0.058651
0.01955,0.058651,0.34213,0.048876
0.01955,0.068426,0.30303,0.048876
0.01955,0.068426,0.30303,0.039101
0.01955,0.068426,0.28348,0.039101
0.029326,0.068426,0.2737,0.039101
0.029326,0.058651,0.28348,0.048876
0.029326,0.058651,0.25415,0.048876
0.029326,0.058651,0.28348,0.048876
0.01955,0.058651,0.24438,0.039101
0.01955,0.058651,0.21505,0.039101
0.01955,0.048876,0.20528,0.039101
0.01955,0.048876,0.1955,0.048876
0.029326,0.048876,0.18573,0.048876
0.029326,0.048876,0.20528,0.048876
0.039101,0.058651,0.1955,0.039101
0.029326,0.048876,0.1955,0.029326
0.029326,0.048876,0.17595,0.029326
0.01955,0.048876,0.1564,0.029326
0.01955,0.048876,0.17595,0.029326
0.01955,0.048876,0.16618,0.029326
0.0097752,0.039101,0.16618,0.029326
0.0097752,0.048876,0.14663,0.01955
0.0097752,0.048876,0.13685,0.01955
0.0097752,0.058651,0.14663,0.01955
0.0097752,0.058651,0.13685,0.0097752
0.01955,0.068426,0.13685,0.0097752
0.01955,0.068426,0.1173,0.0097752
0.039101,0.068426,0.10753,0.0097752
0.039101,0.068426,0.1173,0.0097752
0.058651,0.068426,0.1173,0.01955
0.058651,0.068426,0.1173,0.039101
0.048876,0.068426,0.1173,0.048876
0.058651,0.068426,0.13685,0.058651
0.058651,0.068426,0.1173,0.048876
0.078201,0.078201,0.10753,0.039101
0.078201,0.078201,0.097752,0.039101
0.078201,0.087977,0.10753,0.039101
0.078201,0.097752,0.087977,0.029326
0.087977,0.097752,0.078201,0.029326
0.087977,0.097752,0.087977,0.039101
0.087977,0.10753,0.078201,0.039101
0.10753,0.1173,0.078201,0.039101
0.12708,0.13685,0.058651,0.039101
0.10753,0.14663,0.058651,0.029326
0.10753,0.14663,0.058651,0.01955
0.10753,0.1564,0.058651,0.01955
0.1173,0.14663,0.068426,0.01955
0.14663,0.16618,0.068426,0.01955
0.1564,0.16618,0.058651,0.01955
0.1564,0.17595,0.058651,0.01955
0.13685,0.16618,0.058651,0.01955
0.12708,0.16618,0.058651,0.01955
0.13685,0.17595,0.058651,0.01955
0.12708,0.18573,0.058651,0.01955
0.13685,0.17595,0.048876,0.01955
0.13685,0.17595,0.058651,0.01955
0.12708,0.17595,0.048876,0.01955
0.14663,0.16618,0.039101,0.0097752
0.16618,0.18573,0.039101,0.01955
0.16618,0.18573,0.039101,0.01955
0.17595,0.1955,0.029326,0.029326
0.14663,0.21505,0.029326,0.01955
0.17595,0.20528,0.029326,0.01955
0.17595,0.1955,0.039101,0.01955
0.1564,0.18573,0.029326,0.0097752
0.1564,0.16618,0.039101,0.01955
0.13685,0.17595,0.029326,0.029326
0.12708,0.1564,0.029326,0.029326
0.1173,0.14663,0.039101,0.039101
0.1173,0.14663,0.029326,0.048876
0.10753,0.12708,0.039101,0.048876
0.097752,0.1173,0.048876,0.048876
0.097752,0.1173,0.058651,0.048876
0.097752,0.10753,0.068426,0.048876
0.097752,0.097752,0.058651,0.039101
0.097752,0.087977,0.058651,0.039101
0.087977,0.087977,0.078201,0.039101
0.097752,0.078201,0.097752,0.039101
0.097752,0.078201,0.097752,0.048876
0.097752,0.078201,0.097752,0.068426
0.087977,0.087977,0.087977,0.068426
0.078201,0.078201,0.12708,0.058651
0.078201,0.068426,0.12708,0.058651
0.078201,0.058651,0.1173,0.058651
0.068426,0.068426,0.12708,0.068426
0.068426,0.058651,0.1173,0.068426
0.068426,0.087977,0.12708,0.068426
0.058651,0.087977,0.13685,0.068426
0.058651,0.078201,0.1564,0.078201
0.058651,0.078201,0.16618,0.078201
0.048876,0.078201,0.2346,0.078201
0.048876,0.068426,0.24438,0.087977
0.048876,0.068426,0.24438,0.1173
0.048876,0.068426,0.29326,0.1564
0.048876,0.058651,0.40078,0.16618
0.048876,0.048876,0.43011,0.16618
0.048876,0.048876,0.42033,0.18573
0.039101,0.048876,0.43011,0.1955
0.039101,0.058651,0.45943,0.16618
0.039101,0.048876,0.49853,0.1564
0.039101,0.058651,0.64516,0.13685
0.029326,0.058651,0.63539,0.13685
0.029326,0.058651,0.59629,0.1173
0.029326,0.048876,0.66471,0.10753
0.039101,0.058651,0.59629,0.12708
0.039101,0.058651,0.61584,0.12708
0.039101,0.048876,0.60606,0.10753
0.048876,0.048876,0.70381,0.087977
0.048876,0.048876,0.68426,0.087977
0.048876,0.058651,0.62561,0.097752
0.039101,0.058651,0.59629,0.097752
0.039101,0.048876,0.58651,0.087977
0.039101,0.048876,0.51808,0.087977
0.029326,0.048876,0.43988,0.10753
0.01955,0.039101,0.38123,0.1173
0.01955,0.048876,0.34213,0.097752
0.0097752,0.039101,0.31281,0.097752
0.0097752,0.048876,0.32258,0.087977
0.01955,0.048876,0.28348,0.097752
0.0097752,0.048876,0.25415,0.097752
0.01955,0.039101,0.2346,0.087977
0.01955,0.048876,0.21505,0.078201
0.0097752,0.039101,0.21505,0.078201
0.0097752,0.039101,0.21505,0.078201
0.0097752,0.039101,0.1955,0.078201
0.01955,0.039101,0.1955,0.058651
0.029326,0.029326,0.2346,0.048876
0.039101,0.029326,0.22483,0.048876
0.029326,0.029326,0.1955,0.039101
0.029326,0.029326,0.18573,0.039101
0.01955,0.029326,0.17595,0.029326
0.01955,0.039101,0.1564,0.039101
0.01955,0.048876,0.17595,0.029326
0.01955,0.039101,0.1564,0.029326
0.01955,0.039101,0.16618,0.01955
0.01955,0.029326,0.1955,0.029326
0.01955,0.039101,0.20528,0.01955
0.0097752,0.029326,0.18573,0.01955
0.01955,0.029326,0.18573,0.01955
0.0097752,0.029326,0.16618,0.01955
0.0097752,0.029326,0.1564,0.01955
0.0097752,0.029326,0.16618,0.01955
0.0097752,0.029326,0.1564,0.01955
0.01955,0.029326,0.14663,0.01955
0.01955,0.039101,0.14663,0.01955
0.029326,0.039101,0.14663,0.029326
0.029326,0.039101,0.12708,0.01955
0.029326,0.039101,0.14663,0.01955
0.029326,0.039101,0.1564,0.029326
0.029326,0.048876,0.14663,0.029326
0.039101,0.058651,0.12708,0.029326
0.039101,0.068426,0.13685,0.01955
0.039101,0.068426,0.13685,0.01955
0.039101,0.068426,0.1173,0.0097752
0.029326,0.068426,0.12708,0.0097752
0.029326,0.068426,0.1173,0.0097752
0.039101,0.078201,0.097752,0.0097752
0.039101,0.10753,0.087977,0.0097752
0.039101,0.10753,0.097752,0.0097752
0.048876,0.12708,0.10753,0.0097752
0.048876,0.12708,0.12708,0.01955
0.039101,0.12708,0.10753,0.029326
0.058651,0.1564,0.097752,0.039101
0.048876,0.1564,0.087977,0.048876
0.058651,0.1564,0.097752,0.048876
0.078201,0.16618,0.078201,0.039101
0.078201,0.16618,0.078201,0.039101
0.078201,0.1564,0.078201,0.039101
0.068426,0.1564,0.078201,0.039101
0.078201,0.17595,0.058651,0.039101
0.078201,0.17595,0.058651,0.039101
0.078201,0.20528,0.048876,0.029326
0.078201,0.20528,0.048876,0.029326
0.078201,0.25415,0.048876,0.029326
0.087977,0.28348,0.039101,0.029326
0.087977,0.32258,0.039101,0.048876
0.1173,0.33236,0.048876,0.048876
0.1173,0.35191,0.048876,0.048876
0.10753,0.36168,0.058651,0.039101
0.12708,0.31281,0.058651,0.029326
0.1173,0.31281,0.058651,0.029326
0.10753,0.29326,0.048876,0.029326
0.10753,0.30303,0.039101,0.048876
0.10753,0.29326,0.039101,0.048876
0.10753,0.26393,0.048876,0.039101
0.10753,0.25415,0.097752,0.039101
0.097752,0.22483,0.087977,0.039101
0.097752,0.1955,0.078201,0.058651
0.10753,0.1955,0.087977,0.068426
0.12708,0.1955,0.10753,0.058651
0.1173,0.18573,0.10753,0.058651
0.097752,0.16618,0.087977,0.058651
0.087977,0.17595,0.10753,0.068426
0.097752,0.18573,0.1173,0.068426
0.078201,0.18573,0.10753,0.078201
0.068426,0.17595,0.12708,0.087977
0.078201,0.16618,0.10753,0.097752
0.068426,0.16618,0.097752,0.087977
0.058651,0.1564,0.10753,0.10753
0.058651,0.14663,0.10753,0.1173
0.058651,0.14663,0.097752,0.1173
0.058651,0.13685,0.1173,0.13685
0.068426,0.13685,0.10753,0.1564
0.068426,0.12708,0.10753,0.13685
0.068426,0.10753,0.1173,0.16618
0.068426,0.097752,0.1173,0.14663
0.068426,0.087977,0.12708,0.1564
0.068426,0.087977,0.1564,0.16618
0.068426,0.087977,0.13685,0.16618
0.068426,0.087977,0.13685,0.16618
0.058651,0.097752,0.17595,0.20528
0.068426,0.10753,0.16618,0.21505
0.058651,0.097752,0.1955,0.21505
0.058651,0.10753,0.25415,0.1955
0.058651,0.097752,0.2346,0.1955
0.058651,0.097752,0.26393,0.17595
0.058651,0.10753,0.28348,0.14663
0.048876,0.087977,0.26393,0.16618
0.048876,0.087977,0.28348,0.14663
0.048876,0.087977,0.33236,0.13685
0.039101,0.078201,0.36168,0.13685
0.039101,0.087977,0.56696,0.12708
0.039101,0.087977,0.72336,0.13685
0.048876,0.078201,0.80156,0.13685
0.039101,0.078201,0.83089,0.14663
0.029326,0.068426,0.81134,0.1173
0.039101,0.068426,0.82111,0.10753
0.039101,0.058651,0.77224,0.087977
0.039101,0.058651,0.79179,0.097752
0.039101,0.058651,0.76246,0.10753
0.039101,0.058651,0.87977,0.10753
0.039101,0.058651,0.85044,0.10753
0.029326,0.078201,1.0166,0.097752
0.01955,0.068426,0.99707,0.097752
0.01955,0.058651,0.92864,0.097752
0.01955,0.058651,0.79179,0.097752
0.0097752,0.058651,0.84066,0.087977
0.01955,0.058651,0.74291,0.078201
0.01955,0.058651,0.63539,0.078201
0.01955,0.058651,0.66471,0.078201
0.01955,0.058651,0.61584,0.068426
0.01955,0.058651,0.60606,0.068426
0.0097752,0.058651,0.72336,0.068426
0.0097752,0.058651,0.61584,0.068426
0.01955,0.058651,0.63539,0.068426
0.01955,0.048876,0.56696,0.048876
0.0097752,0.068426,0.49853,0.039101
0.01955,0.058651,0.43988,0.039101
0.01955,0.058651,0.42033,0.039101
0.01955,0.048876,0.36168,0.039101
0.029326,0.048876,0.37146,0.039101
0.029326,0.058651,0.33236,0.029326
0.01955,0.048876,0.29326,0.029326
0.01955,0.058651,0.28348,0.039101
0.01955,0.058651,0.29326,0.048876
0.01955,0.048876,0.2737,0.048876
0.029326,0.048876,0.25415,0.039101
0.01955,0.039101,0.24438,0.039101
0.01955,0.039101,0.24438,0.029326
0.01955,0.029326,0.24438,0.029326
0.0097752,0.048876,0.2346,0.039101
0.0097752,0.068426,0.2737,0.039101
0.0097752,0.058651,0.2346,0.029326
0.0097752,0.058651,0.20528,0.01955
0.0097752,0.058651,0.18573,0.01955
0.0097752,0.058651,0.18573,0.029326
0,0.058651,0.16618,0.029326
0,0.058651,0.17595,0.029326
0,0.058651,0.1564,0.029326
0.0097752,0.058651,0.16618,0.029326
0.0097752,0.058651,0.18573,0.01955
0.0097752,0.058651,0.18573,0.029326
0.0097752,0.058651,0.16618,0.029326
0.01955,0.058651,0.20528,0.01955
0.029326,0.058651,0.18573,0.029326
0.029326,0.058651,0.16618,0.01955
0.039101,0.068426,0.17595,0.0097752
0.039101,0.068426,0.16618,0.0097752
0.029326,0.068426,0.16618,0.0097752
0.029326,0.078201,0.18573,0.0097752
0.039101,0.068426,0.18573,0
0.029326,0.068426,0.1564,0
0.039101,0.078201,0.18573,0.0097752
0.039101,0.078201,0.17595,0
0.048876,0.078201,0.14663,0
0.058651,0.087977,0.1564,0.0097752
0.058651,0.087977,0.1564,0.0097752
0.058651,0.087977,0.16618,0.0097752
0.058651,0.097752,0.13685,0.0097752
0.068426,0.1173,0.13685,0.0097752
0.078201,0.13685,0.12708,0.0097752
0.068426,0.12708,0.1173,0.0097752
0.078201,0.12708,0.1173,0.0097752
0.087977,0.1173,0.13685,0.0097752
0.10753,0.1173,0.10753,0.0097752
0.10753,0.13685,0.087977,0.01955
0.10753,0.13685,0.087977,0.0097752
0.10753,0.12708,0.097752,0.0097752
0.1173,0.12708,0.087977,0.01955
0.12708,0.1564,0.087977,0.01955
0.12708,0.16618,0.078201,0.01955
0.1173,0.17595,0.058651,0.01955
0.12708,0.17595,0.058651,0.029326
0.1173,0.20528,0.058651,0.029326
0.1173,0.22483,0.039101,0.039101
0.10753,0.2346,0.048876,0.039101
0.097752,0.26393,0.039101,0.048876
0.10753,0.2737,0.039101,0.048876
0.10753,0.25415,0.048876,0.058651
0.10753,0.2346,0.048876,0.058651
0.1173,0.22483,0.058651,0.058651
0.10753,0.2346,0.048876,0.068426
0.097752,0.26393,0.058651,0.087977
0.087977,0.25415,0.078201,0.087977
0.087977,0.25415,0.068426,0.087977
0.097752,0.2346,0.068426,0.078201
0.087977,0.21505,0.068426,0.078201
0.078201,0.1955,0.058651,0.087977
0.078201,0.1955,0.048876,0.087977
0.068426,0.18573,0.048876,0.097752
0.068426,0.16618,0.058651,0.13685
0.048876,0.14663,0.058651,0.1564
0.068426,0.14663,0.058651,0.16618
0.058651,0.14663,0.058651,0.18573
0.058651,0.13685,0.048876,0.18573
0.068426,0.12708,0.048876,0.17595
0.078201,0.12708,0.058651,0.18573
0.068426,0.1173,0.048876,0.18573
0.058651,0.13685,0.058651,0.1955
0.058651,0.14663,0.058651,0.18573
0.058651,0.13685,0.068426,0.18573
0.068426,0.1173,0.068426,0.18573
0.068426,0.13685,0.058651,0.1955
0.068426,0.1173,0.058651,0.1955
0.068426,0.097752,0.048876,0.1955
0.058651,0.097752,0.058651,0.18573
0.058651,0.097752,0.068426,0.16618
0.058651,0.078201,0.068426,0.16618
0.048876,0.078201,0.078201,0.14663
0.048876,0.068426,0.078201,0.13685
0.039101,0.068426,0.087977,0.1173
0.039101,0.058651,0.097752,0.10753
0.039101,0.058651,0.1173,0.097752
0.039101,0.068426,0.1173,0.097752
0.048876,0.068426,0.10753,0.087977
0.048876,0.087977,0.1564,0.078201
0.048876,0.087977,0.17595,0.10753
0.048876,0.078201,0.16618,0.097752
0.048876,0.078201,0.1564,0.1173
0.039101,0.087977,0.1564,0.1173
0.039101,0.097752,0.1564,0.10753
0.039101,0.087977,0.14663,0.10753
0.029326,0.078201,0.14663,0.10753
0.01955,0.078201,0.16618,0.087977
0.01955,0.068426,0.17595,0.087977
0.01955,0.058651,0.18573,0.097752
0.01955,0.058651,0.29326,0.097752
0.029326,0.058651,0.35191,0.078201
0.01955,0.058651,0.39101,0.068426
0.029326,0.068426,0.44966,0.078201
0.029326,0.058651,0.50831,0.068426
0.01955,0.058651,0.53763,0.058651
0.029326,0.048876,0.47898,0.058651
0.01955,0.048876,0.47898,0.048876
0.01955,0.039101,0.47898,0.039101
0.01955,0.039101,0.45943,0.039101
0.01955,0.029326,0.55718,0.039101
0.029326,0.039101,0.55718,0.039101
0.01955,0.039101,0.51808,0.039101
0.01955,0.029326,0.52786,0.039101
0.029326,0.029326,0.54741,0.039101
0.039101,0.029326,0.54741,0.029326
0.029326,0.039101,0.62561,0.029326
0.029326,0.039101,0.58651,0.029326
0.01955,0.029326,0.69404,0.029326
0.01955,0.029326,0.75269,0.01955
0.01955,0.029326,0.69404,0.01955
0.0097752,0.029326,0.77224,0.01955
0.01955,0.029326,0.66471,0.029326
0.0097752,0.029326,0.65494,0.029326
0.01955,0.029326,0.64516,0.029326
0.039101,0.029326,0.62561,0.01955
0.058651,0.029326,0.59629,0.0097752
0.068426,0.029326,0.51808,0.01955
0.12708,0.029326,0.45943,0.01955
0.13685,0.029326,0.45943,0.01955
0.12708,0.029326,0.43011,0.0097752
0.097752,0.029326,0.36168,0.0097752
0.10753,0.048876,0.35191,0.0097752
0.10753,0.058651,0.33236,0.0097752
0.097752,0.048876,0.28348,0.01955
0.097752,0.048876,0.2346,0.039101
0.078201,0.048876,0.2346,0.039101
0.068426,0.048876,0.24438,0.029326
0.048876,0.048876,0.2346,0.029326
0.039101,0.048876,0.21505,0.029326
0.048876,0.048876,0.21505,0.01955
0.048876,0.048876,0.22483,0.01955
0.048876,0.048876,0.22483,0.0097752
0.039101,0.048876,0.21505,0.0097752
0.039101,0.048876,0.21505,0.0097752
0.048876,0.048876,0.18573,0.0097752
0.039101,0.078201,0.1955,0.0097752
0.039101,0.087977,0.18573,0.0097752
0.039101,0.097752,0.17595,0.01955
0.039101,0.097752,0.1564,0.01955
0.039101,0.097752,0.16618,0.0097752
0.039101,0.10753,0.16618,0.0097752
0.039101,0.10753,0.14663,0.0097752
0.048876,0.097752,0.12708,0.0097752
0.048876,0.097752,0.13685,0.0097752
0.048876,0.1173,0.16618,0
0.048876,0.10753,0.1564,0
0.058651,0.1173,0.13685,0
0.078201,0.13685,0.12708,0
0.068426,0.13685,0.12708,0
0.087977,0.1564,0.1173,0
0.097752,0.1564,0.10753,0
0.097752,0.18573,0.1173,0
0.097752,0.18573,0.12708,0
0.1173,0.26393,0.097752,0.0097752
0.12708,0.36168,0.097752,0.0097752
0.1173,0.44966,0.087977,0.0097752
0.10753,0.41056,0.087977,0.01955
0.097752,0.43988,0.087977,0.01955
0.10753,0.43988,0.078201,0.029326
0.10753,0.50831,0.068426,0.01955
0.10753,0.52786,0.078201,0.029326
0.10753,0.52786,0.097752,0.029326
0.10753,0.51808,0.087977,0.029326
0.097752,0.55718,0.078201,0.039101
0.087977,0.56696,0.087977,0.048876
0.078201,0.53763,0.087977,0.058651
0.068426,0.52786,0.078201,0.068426
0.068426,0.46921,0.068426,0.097752
0.078201,0.42033,0.078201,0.078201
0.078201,0.39101,0.068426,0.087977
0.068426,0.38123,0.058651,0.078201
0.068426,0.36168,0.058651,0.097752
0.058651,0.33236,0.058651,0.097752
0.068426,0.31281,0.058651,0.097752
0.068426,0.31281,0.068426,0.087977
0.097752,0.29326,0.058651,0.097752
0.1173,0.28348,0.058651,0.097752
0.1173,0.2737,0.058651,0.1173
0.10753,0.25415,0.068426,0.1173
0.13685,0.2737,0.058651,0.16618
0.16618,0.26393,0.058651,0.17595
0.17595,0.2346,0.058651,0.1564
0.14663,0.20528,0.058651,0.18573
0.13685,0.18573,0.058651,0.21505
0.12708,0.17595,0.048876,0.20528
0.097752,0.1564,0.048876,0.18573
0.087977,0.14663,0.039101,0.1564
0.097752,0.13685,0.048876,0.17595
0.078201,0.13685,0.039101,0.17595
0.068426,0.12708,0.029326,0.18573
0.058651,0.13685,0.039101,0.17595
0.058651,0.13685,0.048876,0.1955
0.048876,0.13685,0.039101,0.21505
0.039101,0.13685,0.039101,0.18573
0.048876,0.1564,0.048876,0.17595
0.048876,0.1564,0.058651,0.14663
0.048876,0.1564,0.048876,0.13685
0.048876,0.14663,0.058651,0.12708
0.048876,0.14663,0.068426,0.10753
0.048876,0.12708,0.058651,0.10753
0.048876,0.1173,0.058651,0.10753
0.048876,0.1173,0.068426,0.097752
0.048876,0.097752,0.078201,0.087977
0.039101,0.087977,0.078201,0.078201
0.039101,0.087977,0.068426,0.078201
0.039101,0.097752,0.078201,0.087977
0.029326,0.087977,0.078201,0.078201
0.029326,0.087977,0.087977,0.078201
0.029326,0.087977,0.087977,0.078201
0.029326,0.097752,0.087977,0.078201
0.029326,0.087977,0.097752,0.068426
0.029326,0.087977,0.10753,0.068426
0.01955,0.078201,0.097752,0.068426
0.029326,0.087977,0.10753,0.058651
0.048876,0.078201,0.10753,0.058651
0.058651,0.097752,0.13685,0.058651
0.048876,0.078201,0.13685,0.068426
0.039101,0.068426,0.13685,0.078201
0.039101,0.078201,0.12708,0.078201
0.029326,0.068426,0.13685,0.068426
0.01955,0.068426,0.13685,0.078201
0.01955,0.068426,0.14663,0.078201
0.029326,0.068426,0.14663,0.068426
0.039101,0.068426,0.14663,0.058651
0.039101,0.068426,0.1955,0.048876
0.029326,0.068426,0.18573,0.048876
0.029326,0.068426,0.1955,0.039101
0.01955,0.068426,0.2346,0.048876
0.01955,0.058651,0.28348,0.039101
0.01955,0.058651,0.2737,0.029326
0.0097752,0.068426,0.37146,0.029326
0.029326,0.087977,0.34213,0.029326
0.039101,0.25415,0.32258,0.029326
0.039101,0.26393,0.43011,0.01955
0.039101,0.21505,0.43988,0.01955
0.048876,0.18573,0.42033,0.01955
0.058651,0.20528,0.40078,0.0097752
0.058651,0.1955,0.45943,0.01955
0.058651,0.16618,0.51808,0.029326
0.058651,0.14663,0.51808,0.029326
0.048876,0.12708,0.71359,0.01955
0.039101,0.12708,0.64516,0.01955
0.039101,0.13685,0.62561,0.0097752
0.048876,0.1173,0.59629,0.01955
0.039101,0.10753,0.55718,0.01955
0.029326,0.097752,0.52786,0.01955
0.029326,0.078201,0.49853,0.0097752
0.029326,0.078201,0.45943,0.0097752
0.01955,0.068426,0.43011,0.01955
0.01955,0.058651,0.45943,0.039101
0.01955,0.058651,0.40078,0.039101
0.01955,0.058651,0.36168,0.029326
0.029326,0.058651,0.35191,0.029326
0.01955,0.048876,0.30303,0.029326
0.01955,0.048876,0.33236,0.029326
0.029326,0.058651,0.30303,0.01955
0.029326,0.058651,0.25415,0.0097752
0.029326,0.058651,0.26393,0.0097752
0.01955,0.058651,0.2346,0.0097752
0.0097752,0.048876,0.2346,0.01955
0.01955,0.058651,0.21505,0.0097752
0.01955,0.058651,0.1955,0.0097752
0.029326,0.058651,0.18573,0.0097752
0.029326,0.068426,0.18573,0.0097752
0.029326,0.068426,0.17595,0.0097752
0.029326,0.068426,0.17595,0.0097752
0.039101,0.087977,0.1564,0.0097752
0.039101,0.078201,0.20528,0.0097752
0.048876,0.078201,0.1955,0.0097752
0.058651,0.078201,0.16618,0.0097752
0.068426,0.078201,0.16618,0.0097752
0.068426,0.087977,0.1955,0.0097752
0.10753,0.10753,0.17595,0.0097752
0.12708,0.10753,0.16618,0.01955
0.12708,0.10753,0.18573,0.01955
0.10753,0.12708,0.18573,0.01955
0.087977,0.14663,0.1564,0.01955
0.068426,0.16618,0.14663,0.029326
0.078201,0.22483,0.13685,0.048876
0.078201,0.25415,0.13685,0.048876
0.087977,0.22483,0.14663,0.058651
0.087977,0.2346,0.13685,0.048876
0.097752,0.24438,0.14663,0.058651
0.1173,0.2737,0.1564,0.058651
0.14663,0.28348,0.13685,0.068426
0.14663,0.35191,0.14663,0.078201
0.1564,0.40078,0.12708,0.087977
0.14663,0.40078,0.12708,0.10753
0.1564,0.39101,0.1173,0.087977
0.18573,0.38123,0.12708,0.097752
0.16618,0.39101,0.1173,0.10753
0.16618,0.41056,0.10753,0.1173
0.14663,0.44966,0.1173,0.14663
0.13685,0.41056,0.097752,0.13685
0.14663,0.35191,0.097752,0.1173
0.12708,0.32258,0.1173,0.1564
0.12708,0.32258,0.097752,0.17595
0.12708,0.30303,0.097752,0.1564
0.10753,0.28348,0.097752,0.13685
0.10753,0.25415,0.087977,0.14663
0.10753,0.2346,0.078201,0.14663
0.097752,0.20528,0.068426,0.14663
0.087977,0.18573,0.068426,0.14663
0.078201,0.17595,0.058651,0.14663
0.087977,0.1564,0.068426,0.1564
0.1173,0.14663,0.058651,0.14663
0.1173,0.14663,0.058651,0.13685
0.097752,0.1564,0.068426,0.1173
0.10753,0.13685,0.058651,0.10753
0.10753,0.12708,0.048876,0.097752
0.097752,0.1173,0.048876,0.097752
0.087977,0.1173,0.048876,0.087977
0.087977,0.1173,0.048876,0.078201
0.078201,0.12708,0.039101,0.078201
0.068426,0.1173,0.039101,0.078201
0.068426,0.12708,0.048876,0.078201
0.058651,0.10753,0.068426,0.078201
0.058651,0.10753,0.058651,0.087977
0.068426,0.10753,0.058651,0.068426
0.058651,0.10753,0.058651,0.068426
0.058651,0.10753,0.048876,0.058651
0.048876,0.097752,0.048876,0.068426
0.048876,0.087977,0.048876,0.058651
0.039101,0.078201,0.048876,0.058651
0.039101,0.078201,0.048876,0.048876
0.039101,0.097752,0.039101,0.039101
0.039101,0.097752,0.048876,0.048876
0.039101,0.087977,0.048876,0.058651
0.039101,0.078201,0.048876,0.048876
0.029326,0.087977,0.048876,0.058651
0.01955,0.087977,0.058651,0.048876
0.01955,0.078201,0.068426,0.048876
0.01955,0.078201,0.058651,0.048876
0.029326,0.078201,0.058651,0.048876
0.039101,0.068426,0.058651,0.039101
0.029326,0.068426,0.058651,0.029326
0.039101,0.068426,0.058651,0.029326
0.039101,0.078201,0.058651,0.029326
0.029326,0.068426,0.068426,0.029326
0.029326,0.068426,0.087977,0.01955
0.029326,0.058651,0.087977,0.029326
0.029326,0.078201,0.097752,0.01955
0.029326,0.068426,0.12708,0.01955
0.01955,0.078201,0.1173,0.029326
0.0097752,0.078201,0.12708,0.01955
0.01955,0.058651,0.14663,0.029326
0.0097752,0.058651,0.16618,0.029326
0.01955,0.058651,0.17595,0.01955
0.01955,0.058651,0.20528,0.029326
0.01955,0.058651,0.20528,0.029326
0.0097752,0.068426,0.22483,0.029326
0.01955,0.068426,0.20528,0.029326
0.01955,0.097752,0.1955,0.029326
0.01955,0.097752,0.17595,0.029326
0.01955,0.12708,0.16618,0.029326
0.0097752,0.14663,0.18573,0.01955
0.0097752,0.12708,0.18573,0.01955
0.0097752,0.1173,0.18573,0.01955
0.0097752,0.10753,0.17595,0.01955
0.0097752,0.097752,0.20528,0.01955
0.0097752,0.087977,0.2346,0.0097752
0.01955,0.097752,0.2346,0.0097752
0.039101,0.17595,0.30303,0.0097752
0.039101,0.24438,0.48876,0.0097752
0.029326,0.24438,0.50831,0.0097752
0.039101,0.20528,0.50831,0.0097752
0.048876,0.17595,0.49853,0.0097752
0.058651,0.1564,0.46921,0
0.078201,0.13685,0.45943,0
0.058651,0.12708,0.43011,0
0.058651,0.10753,0.47898,0
0.048876,0.087977,0.45943,0
0.039101,0.078201,0.43988,0.01955
0.039101,0.078201,0.41056,0.029326
0.029326,0.058651,0.39101,0.039101
0.039101,0.048876,0.35191,0.039101
0.048876,0.039101,0.31281,0.039101
0.048876,0.039101,0.28348,0.048876
0.048876,0.039101,0.29326,0.058651
0.039101,0.039101,0.28348,0.058651
0.048876,0.039101,0.26393,0.058651
0.048876,0.039101,0.28348,0.058651
0.039101,0.039101,0.24438,0.048876
0.048876,0.048876,0.22483,0.039101
0.048876,0.039101,0.1955,0.039101
0.058651,0.039101,0.17595,0.039101
0.058651,0.048876,0.1564,0.048876
0.068426,0.048876,0.1564,0.068426
0.058651,0.048876,0.13685,0.078201
0.058651,0.048876,0.1173,0.068426
0.068426,0.058651,0.12708,0.058651
0.068426,0.058651,0.1173,0.048876
0.078201,0.068426,0.10753,0.039101
0.087977,0.068426,0.1173,0.029326
0.097752,0.058651,0.12708,0.048876
0.097752,0.058651,0.10753,0.058651
0.097752,0.058651,0.10753,0.068426
0.10753,0.058651,0.1173,0.068426
0.10753,0.068426,0.10753,0.058651
0.10753,0.068426,0.097752,0.068426
0.097752,0.078201,0.097752,0.048876
0.1173,0.087977,0.087977,0.039101
0.13685,0.087977,0.078201,0.048876
0.1564,0.087977,0.087977,0.039101
0.14663,0.087977,0.097752,0.048876
0.16618,0.10753,0.087977,0.068426
0.20528,0.10753,0.078201,0.058651
0.1955,0.13685,0.087977,0.068426
0.17595,0.12708,0.087977,0.068426
0.21505,0.13685,0.087977,0.078201
0.24438,0.14663,0.087977,0.12708
0.2346,0.20528,0.087977,0.16618
0.2346,0.2346,0.087977,0.1955
0.21505,0.25415,0.097752,0.1955
0.1955,0.31281,0.097752,0.18573
0.17595,0.38123,0.087977,0.16618
0.1955,0.38123,0.087977,0.17595
0.1955,0.40078,0.097752,0.18573
0.17595,0.39101,0.087977,0.17595
0.16618,0.38123,0.078201,0.16618
0.1564,0.39101,0.078201,0.14663
0.12708,0.37146,0.078201,0.17595
0.1173,0.36168,0.068426,0.16618
0.097752,0.36168,0.068426,0.17595
0.097752,0.33236,0.068426,0.1955
0.097752,0.32258,0.058651,0.1955
0.087977,0.31281,0.058651,0.1955
0.078201,0.30303,0.058651,0.18573
0.068426,0.28348,0.068426,0.18573
0.068426,0.2346,0.058651,0.16618
0.068426,0.24438,0.058651,0.17595
0.048876,0.22483,0.058651,0.1955
0.048876,0.20528,0.058651,0.18573
0.058651,0.1955,0.058651,0.1955
0.058651,0.18573,0.048876,0.18573
0.058651,0.17595,0.058651,0.16618
0.048876,0.16618,0.068426,0.1564
0.048876,0.1564,0.068426,0.14663
0.048876,0.14663,0.058651,0.12708
0.058651,0.10753,0.078201,0.058651
1.1535,1.5054,0.41056,0.1173
0.90909,1.2121,0.34213,0.087977
0.72336,0.97752,0.28348,0.068426
0.58651,0.78201,0.2346,0.068426
0.47898,0.64516,0.20528,0.048876
0.40078,0.53763,0.1955,0.039101
0.32258,0.45943,0.17595,0.029326
0.26393,0.38123,0.1564,0.01955
0.21505,0.32258,0.14663,0.029326
0.18573,0.28348,0.12708,0.01955
0.1564,0.2346,0.12708,0.01955
0.12708,0.2346,0.10753,0.01955
0.1173,0.20528,0.1173,0.01955
0.10753,0.18573,0.10753,0.039101
0.10753,0.1564,0.097752,0.039101
0.1173,0.13685,0.10753,0.029326
0.10753,0.12708,0.087977,0.039101
0.097752,0.1173,0.078201,0.039101
0.10753,0.10753,0.078201,0.039101
0.1173,0.10753,0.068426,0.029326
0.1173,0.097752,0.068426,0.029326
0.12708,0.087977,0.058651,0.039101
0.14663,0.078201,0.058651,0.029326
0.1564,0.078201,0.058651,0.029326
0.14663,0.087977,0.058651,0.029326
0.1564,0.087977,0.058651,0.029326
0.13685,0.078201,0.058651,0.01955
0.12708,0.068426,0.058651,0.01955
0.10753,0.078201,0.058651,0.01955
0.1173,0.068426,0.058651,0.029326
0.1173,0.068426,0.058651,0.029326
0.097752,0.078201,0.058651,0.039101
0.087977,0.068426,0.058651,0.039101
0.097752,0.058651,0.058651,0.039101
0.097752,0.068426,0.058651,0.039101
0.087977,0.068426,0.048876,0.039101
0.087977,0.058651,0.039101,0.039101
0.097752,0.068426,0.048876,0.039101
0.097752,0.068426,0.039101,0.048876
0.087977,0.068426,0.048876,0.048876
0.078201,0.068426,0.048876,0.048876
0.068426,0.068426,0.048876,0.058651
0.068426,0.068426,0.097752,0.087977
0.058651,0.058651,0.10753,0.087977
0.048876,0.068426,0.097752,0.097752
0.048876,0.078201,0.097752,0.097752
0.048876,0.068426,0.097752,0.087977
0.048876,0.078201,0.097752,0.10753
0.048876,0.068426,0.087977,0.10753
0.048876,0.058651,0.078201,0.1173
0.058651,0.058651,0.058651,0.1173
0.058651,0.048876,0.058651,0.1173
0.058651,0.048876,0.058651,0.12708
0.048876,0.048876,0.058651,0.1564
0.039101,0.048876,0.048876,0.18573
0.048876,0.048876,0.048876,0.17595
0.058651,0.048876,0.048876,0.1564
0.048876,0.048876,0.068426,0.14663
0.048876,0.048876,0.078201,0.14663
0.048876,0.058651,0.087977,0.16618
0.039101,0.058651,0.078201,0.16618
0.039101,0.048876,0.078201,0.16618
0.029326,0.048876,0.078201,0.1564
0.048876,0.048876,0.087977,0.14663
0.039101,0.048876,0.087977,0.13685
0.029326,0.048876,0.087977,0.13685
0.029326,0.039101,0.087977,0.12708
0.029326,0.048876,0.10753,0.1173
0.029326,0.039101,0.097752,0.1173
0.039101,0.039101,0.10753,0.10753
0.048876,0.039101,0.1173,0.097752
0.058651,0.039101,0.10753,0.097752
0.048876,0.068426,0.1173,0.087977
0.058651,0.058651,0.1173,0.078201
0.078201,0.087977,0.14663,0.087977
0.087977,0.078201,0.17595,0.087977
0.078201,0.068426,0.16618,0.078201
0.058651,0.068426,0.16618,0.068426
0.058651,0.058651,0.18573,0.078201
0.068426,0.058651,0.18573,0.078201
0.058651,0.048876,0.18573,0.058651
0.058651,0.048876,0.18573,0.068426
0.058651,0.048876,0.16618,0.078201
0.078201,0.039101,0.16618,0.078201
0.087977,0.039101,0.20528,0.068426
0.087977,0.039101,0.29326,0.068426
0.078201,0.039101,0.30303,0.068426
0.068426,0.039101,0.32258,0.068426
0.078201,0.039101,0.47898,0.078201
0.068426,0.048876,0.48876,0.078201
0.058651,0.039101,0.48876,0.068426
0.048876,0.048876,0.70381,0.068426
0.058651,0.048876,0.72336,0.058651
0.068426,0.048876,0.70381,0.068426
0.078201,0.048876,0.70381,0.068426
0.078201,0.058651,0.67449,0.068426
0.1173,0.058651,0.60606,0.058651
0.12708,0.058651,0.65494,0.048876
0.1173,0.068426,0.64516,0.048876
0.10753,0.068426,0.62561,0.048876
0.087977,0.068426,0.67449,0.048876
0.078201,0.058651,0.61584,0.048876
0.078201,0.058651,0.56696,0.039101
0.087977,0.058651,0.51808,0.039101
0.097752,0.068426,0.50831,0.039101
0.087977,0.068426,0.54741,0.048876
0.087977,0.068426,0.50831,0.039101
0.097752,0.078201,0.48876,0.039101
0.087977,0.078201,0.43988,0.039101
0.068426,0.087977,0.39101,0.039101
0.058651,0.087977,0.35191,0.039101
0.058651,0.087977,0.36168,0.039101
0.048876,0.078201,0.31281,0.048876
0.039101,0.087977,0.30303,0.048876
0.048876,0.097752,0.28348,0.039101
0.048876,0.1173,0.26393,0.039101
0.048876,0.12708,0.22483,0.029326
0.048876,0.12708,0.20528,0.029326
0.039101,0.17595,0.20528,0.029326
0.029326,0.17595,0.18573,0.01955
0.029326,0.22483,0.16618,0.01955
0.029326,0.22483,0.1564,0.01955
0.01955,0.20528,0.1564,0.0097752
0.01955,0.21505,0.13685,0.0097752
0.0097752,0.25415,0.12708,0.0097752
0.0097752,0.26393,0.13685,0.0097752
0.01955,0.28348,0.14663,0.01955
0.029326,0.29326,0.14663,0.029326
0.029326,0.38123,0.16618,0.01955
0.039101,0.40078,0.16618,0.01955
0.048876,0.40078,0.13685,0.0097752
0.048876,0.35191,0.12708,0.0097752
0.039101,0.34213,0.13685,0.0097752
0.029326,0.34213,0.12708,0.0097752
0.029326,0.32258,0.1173,0.0097752
0.029326,0.32258,0.1173,0.0097752
0.039101,0.30303,0.10753,0
0.039101,0.2737,0.10753,0
0.029326,0.25415,0.097752,0
0.029326,0.21505,0.10753,0
0.039101,0.1955,0.087977,0
0.048876,0.16618,0.087977,0
0.048876,0.1564,0.097752,0
0.058651,0.14663,0.087977,0
0.058651,0.12708,0.087977,0.01955
0.058651,0.1173,0.087977,0.029326
0.058651,0.1173,0.087977,0.01955
0.078201,0.1173,0.097752,0.01955
0.068426,0.10753,0.087977,0.029326
0.068426,0.10753,0.097752,0.029326
0.058651,0.10753,0.087977,0.01955
0.058651,0.097752,0.087977,0.01955
0.068426,0.087977,0.078201,0.01955
0.087977,0.078201,0.068426,0.01955
0.10753,0.078201,0.078201,0.01955
0.1173,0.068426,0.068426,0.0097752
0.097752,0.068426,0.068426,0.0097752
0.10753,0.068426,0.058651,0.0097752
0.10753,0.078201,0.058651,0.0097752
0.10753,0.068426,0.058651,0.0097752
0.1173,0.068426,0.058651,0
0.1173,0.078201,0.058651,0.0097752
0.13685,0.087977,0.058651,0.0097752
0.12708,0.087977,0.058651,0
0.1173,0.10753,0.048876,0
0.10753,0.097752,0.048876,0
0.10753,0.097752,0.048876,0.0097752
0.10753,0.097752,0.048876,0.01955
0.14663,0.087977,0.048876,0.01955
0.1564,0.10753,0.058651,0.029326
0.14663,0.1173,0.068426,0.029326
0.14663,0.1173,0.058651,0.039101
0.1564,0.1173,0.058651,0.029326
0.13685,0.10753,0.058651,0.029326
0.1173,0.10753,0.068426,0.029326
0.10753,0.10753,0.068426,0.029326
0.097752,0.097752,0.068426,0.029326
0.097752,0.087977,0.058651,0.039101
0.078201,0.087977,0.058651,0.039101
0.078201,0.087977,0.048876,0.039101
0.068426,0.078201,0.048876,0.048876
0.058651,0.068426,0.058651,0.058651
0.048876,0.068426,0.068426,0.058651
0.048876,0.068426,0.12708,0.068426
0.048876,0.068426,0.12708,0.068426
0.058651,0.068426,0.10753,0.068426
0.048876,0.068426,0.097752,0.068426
0.058651,0.068426,0.097752,0.068426
0.068426,0.068426,0.087977,0.078201
0.058651,0.068426,0.068426,0.097752
0.058651,0.058651,0.068426,0.097752
0.058651,0.058651,0.078201,0.10753
0.048876,0.058651,0.058651,0.097752
0.048876,0.048876,0.058651,0.13685
0.039101,0.048876,0.048876,0.13685
0.048876,0.048876,0.048876,0.14663
0.039101,0.039101,0.058651,0.16618
0.039101,0.039101,0.058651,0.18573
0.029326,0.048876,0.048876,0.18573
0.039101,0.048876,0.048876,0.1955
0.029326,0.039101,0.048876,0.20528
0.029326,0.048876,0.048876,0.18573
0.039101,0.048876,0.048876,0.18573
0.029326,0.048876,0.048876,0.1955
0.029326,0.048876,0.048876,0.17595
0.029326,0.058651,0.048876,0.1564
0.039101,0.048876,0.048876,0.14663
0.039101,0.039101,0.048876,0.12708
0.039101,0.048876,0.058651,0.1173
0.039101,0.048876,0.068426,0.10753
0.039101,0.048876,0.068426,0.097752
0.039101,0.048876,0.068426,0.097752
0.048876,0.048876,0.078201,0.087977
0.039101,0.048876,0.078201,0.078201
0.039101,0.048876,0.078201,0.068426
0.029326,0.048876,0.078201,0.068426
0.029326,0.048876,0.078201,0.068426
0.01955,0.048876,0.087977,0.068426
0.0097752,0.039101,0.087977,0.058651
0.01955,0.048876,0.087977,0.058651
0.01955,0.048876,0.087977,0.058651
0.01955,0.058651,0.087977,0.058651
0.01955,0.048876,0.097752,0.058651
0.01955,0.058651,0.10753,0.048876
0.0097752,0.058651,0.097752,0.048876
0.0097752,0.068426,0.097752,0.048876
0.0097752,0.068426,0.1173,0.048876
0.0097752,0.058651,0.1173,0.039101
0.01955,0.068426,0.14663,0.048876
0.0097752,0.058651,0.13685,0.048876
0.0097752,0.068426,0.12708,0.048876
0.0097752,0.068426,0.16618,0.048876
0.0097752,0.058651,0.20528,0.058651
0.0097752,0.068426,0.25415,0.078201
0,0.068426,0.2737,0.078201
0.01955,0.068426,0.32258,0.068426
0.029326,0.078201,0.29326,0.078201
0.01955,0.087977,0.29326,0.078201
0.01955,0.087977,0.28348,0.078201
0.029326,0.087977,0.33236,0.087977
0.029326,0.097752,0.43011,0.078201
0.01955,0.097752,0.43988,0.078201
0.01955,0.10753,0.49853,0.068426
0.01955,0.14663,0.49853,0.058651
0.01955,0.1564,0.52786,0.048876
0.029326,0.1564,0.51808,0.039101
0.039101,0.1564,0.46921,0.039101
0.039101,0.16618,0.44966,0.039101
0.039101,0.1955,0.43011,0.039101
0.029326,0.20528,0.39101,0.039101
0.029326,0.25415,0.37146,0.039101
0.029326,0.29326,0.39101,0.048876
0.01955,0.31281,0.43988,0.039101
0.01955,0.37146,0.41056,0.039101
0.0097752,0.43988,0.42033,0.029326
0.01955,0.44966,0.39101,0.029326
0.01955,0.49853,0.37146,0.029326
0.0097752,0.44966,0.37146,0.01955
0.0097752,0.41056,0.35191,0.01955
0.0097752,0.43011,0.35191,0.01955
0.0097752,0.42033,0.31281,0.01955
0.01955,0.44966,0.28348,0.01955
0.01955,0.45943,0.26393,0.01955
0.0097752,0.42033,0.2737,0.01955
0.0097752,0.40078,0.24438,0.01955
0.01955,0.35191,0.21505,0.01955
0.0097752,0.33236,0.18573,0.01955
0.01955,0.30303,0.17595,0.01955
0.029326,0.2737,0.17595,0.01955
0.029326,0.26393,0.17595,0.0097752
0.029326,0.2346,0.1564,0.0097752
0.029326,0.22483,0.1564,0.0097752
0.029326,0.20528,0.13685,0.029326
0.029326,0.18573,0.12708,0.068426
0.029326,0.1955,0.1173,0.087977
0.048876,0.21505,0.10753,0.078201
0.048876,0.22483,0.097752,0.058651
0.058651,0.20528,0.097752,0.058651
0.048876,0.16618,0.10753,0.078201
0.048876,0.17595,0.097752,0.097752
0.048876,0.1564,0.1173,0.10753
0.058651,0.14663,0.12708,0.078201
0.058651,0.14663,0.12708,0.058651
0.048876,0.14663,0.14663,0.058651
0.048876,0.13685,0.1564,0.058651
0.058651,0.13685,0.1564,0.087977
0.058651,0.14663,0.14663,0.078201
0.048876,0.12708,0.1564,0.078201
0.048876,0.12708,0.1564,0.087977
0.058651,0.12708,0.14663,0.078201
0.068426,0.1173,0.1173,0.068426
0.078201,0.1173,0.1173,0.058651
0.087977,0.10753,0.10753,0.058651
0.097752,0.10753,0.087977,0.078201
0.097752,0.097752,0.097752,0.078201
0.087977,0.087977,0.097752,0.078201
0.097752,0.097752,0.1173,0.087977
0.087977,0.078201,0.097752,0.097752
0.097752,0.078201,0.10753,0.078201
0.087977,0.087977,0.097752,0.087977
0.078201,0.087977,0.097752,0.078201
0.078201,0.078201,0.10753,0.097752
0.068426,0.087977,0.1173,0.087977
0.068426,0.087977,0.12708,0.097752
0.068426,0.078201,0.10753,0.078201
0.068426,0.068426,0.097752,0.078201
0.068426,0.078201,0.087977,0.078201
0.058651,0.078201,0.097752,0.068426
0.058651,0.078201,0.087977,0.068426
0.058651,0.068426,0.087977,0.078201
0.058651,0.058651,0.078201,0.087977
0.068426,0.058651,0.078201,0.078201
0.068426,0.048876,0.078201,0.097752
0.058651,0.048876,0.078201,0.097752
0.058651,0.048876,0.078201,0.097752
0.058651,0.039101,0.078201,0.097752
0.068426,0.048876,0.078201,0.10753
0.058651,0.039101,0.068426,0.12708
0.048876,0.039101,0.068426,0.13685
0.048876,0.039101,0.087977,0.14663
0.029326,0.039101,0.078201,0.13685
0.039101,0.039101,0.068426,0.14663
0.029326,0.048876,0.068426,0.12708
0.039101,0.039101,0.068426,0.1173
0.039101,0.039101,0.068426,0.12708
0.029326,0.029326,0.058651,0.13685
0.029326,0.029326,0.068426,0.14663
0.039101,0.029326,0.058651,0.13685
0.039101,0.029326,0.068426,0.13685
0.039101,0.039101,0.068426,0.1173
0.039101,0.048876,0.058651,0.1173
0.039101,0.039101,0.058651,0.12708
0.029326,0.048876,0.048876,0.1173
0.039101,0.039101,0.048876,0.10753
0.029326,0.039101,0.058651,0.097752
0.029326,0.039101,0.048876,0.10753
0.029326,0.039101,0.048876,0.1173
0.01955,0.039101,0.039101,0.10753
0.0097752,0.029326,0.048876,0.10753
0.01955,0.029326,0.048876,0.1173
0.0097752,0.029326,0.048876,0.10753
0.0097752,0.039101,0.039101,0.1173
0.0097752,0.039101,0.048876,0.1173
0.01955,0.039101,0.058651,0.1173
0.01955,0.029326,0.068426,0.10753
0.01955,0.029326,0.078201,0.097752
0.01955,0.029326,0.087977,0.097752
0.01955,0.039101,0.078201,0.087977
0.0097752,0.039101,0.078201,0.078201
0.0097752,0.039101,0.068426,0.078201
0.01955,0.029326,0.058651,0.068426
0.0097752,0.039101,0.078201,0.068426
0.01955,0.039101,0.078201,0.068426
0.01955,0.039101,0.078201,0.078201
0.01955,0.039101,0.078201,0.068426
0.0097752,0.039101,0.078201,0.068426
0.0097752,0.039101,0.087977,0.068426
0.0097752,0.039101,0.087977,0.078201
0.0097752,0.039101,0.097752,0.078201
0.0097752,0.029326,0.1173,0.068426
0.0097752,0.039101,0.1173,0.068426
0.01955,0.039101,0.10753,0.058651
0.01955,0.039101,0.1173,0.058651
0.01955,0.039101,0.1173,0.058651
0.01955,0.039101,0.10753,0.048876
0.0097752,0.039101,0.12708,0.048876
0.0097752,0.048876,0.13685,0.039101
0.0097752,0.039101,0.13685,0.039101
0.0097752,0.048876,0.1564,0.039101
0.0097752,0.048876,0.16618,0.029326
0.0097752,0.068426,0.16618,0.029326
0.0097752,0.078201,0.17595,0.01955
0.0097752,0.078201,0.1564,0.01955
0.0097752,0.087977,0.16618,0.029326
0.01955,0.078201,0.16618,0.039101
0.01955,0.097752,0.18573,0.039101
0.01955,0.097752,0.1955,0.039101
0.01955,0.097752,0.25415,0.029326
0.01955,0.10753,0.24438,0.029326
0.029326,0.10753,0.2346,0.01955
0.01955,0.1173,0.22483,0.01955
0.01955,0.1173,0.24438,0.01955
0.029326,0.10753,0.24438,0.039101
0.01955,0.10753,0.29326,0.048876
0.029326,0.10753,0.28348,0.039101
0.01955,0.1173,0.29326,0.039101
0.029326,0.1173,0.31281,0.029326
0.029326,0.1173,0.32258,0.039101
0.029326,0.13685,0.35191,0.029326
0.029326,0.13685,0.36168,0.029326
0.029326,0.18573,0.36168,0.01955
0.029326,0.22483,0.38123,0.01955
0.029326,0.22483,0.38123,0.029326
0.029326,0.26393,0.41056,0.01955
0.029326,0.2737,0.43011,0.01955
0.01955,0.26393,0.41056,0.01955
0.01955,0.26393,0.41056,0.01955
0.01955,0.25415,0.35191,0.029326
0.01955,0.24438,0.36168,0.01955
0.01955,0.22483,0.33236,0.01955
0.01955,0.20528,0.29326,0.0097752
0.0097752,0.1955,0.26393,0.0097752
0.01955,0.17595,0.26393,0.01955
0.029326,0.17595,0.25415,0.01955
0.039101,0.16618,0.2346,0.01955
0.039101,0.16618,0.2346,0.0097752
0.039101,0.1564,0.20528,0.01955
0.048876,0.1564,0.1955,0.029326
0.068426,0.1564,0.22483,0.01955
0.068426,0.14663,0.24438,0.01955
0.068426,0.14663,0.20528,0.01955
0.068426,0.12708,0.18573,0.0097752
0.058651,0.13685,0.20528,0.01955
0.058651,0.12708,0.17595,0.01955
0.048876,0.1173,0.16618,0.029326
0.058651,0.12708,0.1955,0.039101
0.058651,0.1173,0.17595,0.039101
0.058651,0.10753,0.1564,0.039101
0.058651,0.097752,0.17595,0.039101
0.058651,0.097752,0.1564,0.039101
0.048876,0.10753,0.14663,0.039101
0.058651,0.13685,0.16618,0.039101
0.078201,0.1173,0.1564,0.039101
0.078201,0.10753,0.14663,0.029326
0.068426,0.087977,0.14663,0.029326
0.078201,0.078201,0.13685,0.01955
0.078201,0.078201,0.12708,0.01955
0.097752,0.078201,0.13685,0.0097752
0.087977,0.078201,0.12708,0.0097752
0.087977,0.078201,0.10753,0.0097752
0.078201,0.078201,0.10753,0.0097752
0.087977,0.078201,0.097752,0.0097752
0.078201,0.078201,0.087977,0.0097752
0.078201,0.068426,0.10753,0.0097752
0.068426,0.078201,0.14663,0.0097752
0.078201,0.078201,0.097752,0.0097752
0.078201,0.068426,0.10753,0.01955
0.097752,0.068426,0.1173,0.01955
0.10753,0.068426,0.10753,0.029326
0.097752,0.078201,0.097752,0.029326
0.087977,0.068426,0.10753,0.048876
0.078201,0.058651,0.1173,0.068426
0.078201,0.058651,0.087977,0.078201
0.087977,0.068426,0.087977,0.078201
0.078201,0.058651,0.087977,0.068426
0.078201,0.058651,0.087977,0.058651
0.078201,0.058651,0.078201,0.068426
0.087977,0.048876,0.078201,0.068426
0.097752,0.058651,0.078201,0.068426
0.087977,0.058651,0.068426,0.068426
0.078201,0.048876,0.068426,0.068426
0.078201,0.058651,0.068426,0.068426
0.078201,0.058651,0.068426,0.068426
0.078201,0.058651,0.068426,0.068426
0.068426,0.048876,0.058651,0.068426
0.068426,0.058651,0.058651,0.078201
0.058651,0.068426,0.048876,0.087977
0.058651,0.058651,0.058651,0.10753
0.048876,0.048876,0.058651,0.097752
0.039101,0.048876,0.058651,0.097752
0.048876,0.048876,0.058651,0.1173
0.039101,0.048876,0.058651,0.12708
0.048876,0.048876,0.058651,0.12708
0.039101,0.039101,0.058651,0.12708
0.039101,0.048876,0.058651,0.12708
0.029326,0.039101,0.058651,0.12708
0.029326,0.039101,0.058651,0.13685
0.029326,0.039101,0.058651,0.13685
0.029326,0.029326,0.068426,0.1564
0.01955,0.029326,0.078201,0.20528
0.029326,0.01955,0.087977,0.21505
0.039101,0.01955,0.078201,0.20528
0.039101,0.01955,0.068426,0.18573
0.039101,0.01955,0.078201,0.17595
0.029326,0.0097752,0.087977,0.16618
0.029326,0.029326,0.1173,0.16618
0.029326,0.039101,0.12708,0.14663
0.029326,0.039101,0.14663,0.14663
0.01955,0.048876,0.13685,0.13685
0.01955,0.039101,0.1173,0.13685
0.01955,0.039101,0.10753,0.12708
0.01955,0.039101,0.087977,0.1173
0.01955,0.039101,0.087977,0.10753
0.01955,0.039101,0.078201,0.10753
0.01955,0.039101,0.078201,0.10753
0.01955,0.029326,0.068426,0.097752
0.01955,0.039101,0.068426,0.097752
0.01955,0.039101,0.068426,0.087977
0.01955,0.039101,0.068426,0.087977
0.01955,0.039101,0.068426,0.097752
0.0097752,0.039101,0.068426,0.078201
0.0097752,0.048876,0.058651,0.078201
0.0097752,0.058651,0.048876,0.068426
0.0097752,0.058651,0.058651,0.068426
0.0097752,0.058651,0.058651,0.058651
0.0097752,0.058651,0.058651,0.058651
0.0097752,0.058651,0.068426,0.068426
0.01955,0.058651,0.058651,0.068426
0.01955,0.058651,0.058651,0.068426
0.01955,0.068426,0.068426,0.068426
0.01955,0.068426,0.068426,0.068426
0.01955,0.068426,0.058651,0.087977
0.01955,0.068426,0.068426,0.087977
0.01955,0.058651,0.078201,0.087977
0.01955,0.068426,0.097752,0.097752
0.01955,0.078201,0.087977,0.097752
0.0097752,0.078201,0.097752,0.087977
0.0097752,0.10753,0.097752,0.078201
0.048876,0.097752,0.10753,0.068426
0.058651,0.1173,0.10753,0.068426
0.048876,0.10753,0.10753,0.068426
0.039101,0.10753,0.12708,0.078201
0.029326,0.1173,0.13685,0.078201
0.029326,0.1173,0.13685,0.068426
0.01955,0.1173,0.14663,0.058651
0.0097752,0.1173,0.14663,0.058651
0.0097752,0.12708,0.13685,0.048876
0.0097752,0.1173,0.14663,0.058651
0.0097752,0.12708,0.18573,0.048876
0.0097752,0.13685,0.1955,0.048876
0.0097752,0.14663,0.17595,0.068426
0.0097752,0.1564,0.1564,0.068426
0.01955,0.16618,0.17595,0.058651
0.039101,0.17595,0.17595,0.048876
0.048876,0.1955,0.1955,0.039101
0.048876,0.1955,0.1955,0.039101
0.048876,0.22483,0.2737,0.039101
0.039101,0.24438,0.33236,0.039101
0.039101,0.26393,0.51808,0.048876
0.039101,0.25415,0.63539,0.058651
0.039101,0.24438,0.80156,0.048876
0.029326,0.28348,0.72336,0.048876
0.029326,0.31281,0.60606,0.048876
0.039101,0.31281,0.55718,0.039101
0.039101,0.33236,0.60606,0.029326
0.039101,0.31281,0.54741,0.029326
0.029326,0.2737,0.53763,0.039101
0.01955,0.2737,0.50831,0.048876
0.01955,0.26393,0.46921,0.058651
0.01955,0.2346,0.44966,0.048876
0.01955,0.22483,0.44966,0.039101
0.01955,0.21505,0.41056,0.039101
0.01955,0.18573,0.36168,0.029326
0.01955,0.16618,0.36168,0.029326
0.01955,0.1564,0.33236,0.029326
0.0097752,0.1564,0.30303,0.01955
0.0097752,0.1564,0.29326,0.01955
0.029326,0.14663,0.28348,0.01955
0.039101,0.13685,0.26393,0.048876
0.039101,0.12708,0.28348,0.068426
0.029326,0.1173,0.25415,0.068426
0.029326,0.1173,0.25415,0.078201
0.039101,0.1173,0.24438,0.068426
0.029326,0.10753,0.22483,0.048876
0.048876,0.097752,0.25415,0.039101
0.048876,0.10753,0.2346,0.039101
0.039101,0.097752,0.1955,0.039101
0.039101,0.087977,0.20528,0.048876
0.058651,0.097752,0.17595,0.039101
0.058651,0.097752,0.17595,0.029326
0.048876,0.097752,0.1955,0.029326
0.048876,0.087977,0.17595,0.029326
0.058651,0.078201,0.1955,0.039101
0.058651,0.078201,0.18573,0.029326
0.058651,0.078201,0.16618,0.01955
0.058651,0.078201,0.1564,0.01955
0.068426,0.078201,0.13685,0.039101
0.078201,0.078201,0.14663,0.058651
0.078201,0.078201,0.16618,0.048876
0.078201,0.078201,0.13685,0.039101
0.068426,0.068426,0.13685,0.048876
0.068426,0.068426,0.13685,0.048876
0.078201,0.087977,0.14663,0.048876
0.078201,0.087977,0.13685,0.048876
0.068426,0.078201,0.12708,0.058651
0.068426,0.087977,0.12708,0.068426
0.068426,0.097752,0.097752,0.1173
0.068426,0.10753,0.10753,0.14663
0.087977,0.097752,0.10753,0.14663
0.078201,0.097752,0.097752,0.13685
0.078201,0.10753,0.087977,0.1173
0.068426,0.097752,0.078201,0.13685
0.068426,0.097752,0.068426,0.12708
0.068426,0.087977,0.078201,0.12708
0.068426,0.068426,0.087977,0.10753
0.068426,0.078201,0.078201,0.12708
0.058651,0.068426,0.068426,0.1564
0.078201,0.068426,0.068426,0.14663
0.097752,0.068426,0.078201,0.14663
0.087977,0.058651,0.068426,0.1564
0.087977,0.058651,0.058651,0.17595
0.087977,0.058651,0.058651,0.1955
0.087977,0.058651,0.048876,0.17595
0.078201,0.058651,0.048876,0.16618
0.068426,0.058651,0.058651,0.1955
0.078201,0.068426,0.048876,0.20528
0.068426,0.068426,0.048876,0.1955
0.058651,0.058651,0.039101,0.22483
0.068426,0.058651,0.048876,0.26393
0.048876,0.058651,0.039101,0.24438
0.039101,0.048876,0.039101,0.2346
0.048876,0.048876,0.039101,0.22483
0.039101,0.048876,0.039101,0.22483
0.039101,0.048876,0.039101,0.22483
0.039101,0.048876,0.029326,0.22483
0.029326,0.048876,0.029326,0.20528
0.029326,0.039101,0.029326,0.20528
0.048876,0.039101,0.029326,0.1955
0.048876,0.039101,0.029326,0.1955
0.039101,0.039101,0.029326,0.18573
0.039101,0.039101,0.029326,0.1955
0.039101,0.029326,0.039101,0.16618
0.039101,0.029326,0.029326,0.1564
0.039101,0.01955,0.029326,0.13685
0.039101,0.029326,0.029326,0.1173
0.039101,0.029326,0.029326,0.13685
0.029326,0.029326,0.029326,0.13685
0.029326,0.029326,0.029326,0.12708
0.039101,0.029326,0.029326,0.1173
0.029326,0.029326,0.029326,0.1173
0.029326,0.029326,0.029326,0.1173
0.01955,0.029326,0.029326,0.097752
0.01955,0.029326,0.01955,0.097752
0.0097752,0.029326,0.01955,0.097752
0.0097752,0.029326,0.029326,0.097752
0.0097752,0.029326,0.01955,0.078201
0.01955,0.029326,0.01955,0.068426
0.01955,0.029326,0.01955,0.068426
0.0097752,0.01955,0.01955,0.078201
0.0097752,0.029326,0.01955,0.068426
0.0097752,0.029326,0.01955,0.078201
0.01955,0.029326,0.01955,0.078201
0.01955,0.029326,0.029326,0.068426
0.029326,0.029326,0.029326,0.058651
0.01955,0.029326,0.029326,0.068426
0.01955,0.029326,0.039101,0.078201
0.01955,0.029326,0.039101,0.068426
0.01955,0.029326,0.039101,0.058651
0.01955,0.029326,0.039101,0.058651
0.029326,0.039101,0.039101,0.068426
0.058651,0.039101,0.039101,0.078201
0.058651,0.048876,0.039101,0.078201
0.058651,0.048876,0.039101,0.068426
0.039101,0.058651,0.039101,0.068426
0.039101,0.048876,0.039101,0.058651
0.048876,0.058651,0.048876,0.068426
0.058651,0.068426,0.048876,0.068426
0.058651,0.068426,0.058651,0.078201
0.058651,0.078201,0.058651,0.078201
0.048876,0.087977,0.058651,0.068426
0.039101,0.087977,0.058651,0.058651
0.039101,0.097752,0.068426,0.048876
0.039101,0.097752,0.068426,0.048876
0.029326,0.097752,0.078201,0.039101
0.01955,0.10753,0.078201,0.039101
0.01955,0.1173,0.097752,0.029326
0.0097752,0.1173,0.10753,0.039101
0.0097752,0.1173,0.1173,0.039101
0.01955,0.10753,0.1173,0.048876
0.01955,0.1173,0.12708,0.039101
0.0097752,0.1173,0.1564,0.029326
0.0097752,0.12708,0.14663,0.01955
0.0097752,0.13685,0.14663,0.01955
0.0097752,0.13685,0.13685,0.01955
0,0.14663,0.13685,0.0097752
0,0.14663,0.14663,0.0097752
0.0097752,0.17595,0.13685,0.0097752
0,0.20528,0.13685,0.01955
0,0.28348,0.13685,0.029326
0,0.33236,0.12708,0.048876
0,0.33236,0.12708,0.048876
0,0.34213,0.14663,0.039101
0,0.32258,0.17595,0.039101
0,0.32258,0.20528,0.048876
0,0.31281,0.28348,0.058651
0,0.30303,0.41056,0.058651
0,0.26393,0.48876,0.078201
0.0097752,0.25415,0.46921,0.078201
0.0097752,0.24438,0.44966,0.1173
0.0097752,0.24438,0.43011,0.18573
0.0097752,0.22483,0.47898,0.17595
0.0097752,0.22483,0.54741,0.1564
0.0097752,0.21505,0.51808,0.16618
0.0097752,0.1955,0.50831,0.16618
0.0097752,0.17595,0.46921,0.14663
0.0097752,0.16618,0.42033,0.1173
0.01955,0.16618,0.37146,0.097752
0.01955,0.1564,0.35191,0.078201
0.01955,0.1564,0.31281,0.078201
0.029326,0.13685,0.33236,0.10753
0.029326,0.14663,0.30303,0.14663
0.029326,0.12708,0.25415,0.1173
0.039101,0.12708,0.2346,0.1173
0.039101,0.1173,0.21505,0.1173
0.039101,0.10753,0.20528,0.10753
0.039101,0.10753,0.22483,0.097752
0.039101,0.097752,0.1955,0.087977
0.039101,0.087977,0.18573,0.078201
0.039101,0.078201,0.18573,0.068426
0.048876,0.087977,0.16618,0.078201
0.058651,0.087977,0.1564,0.078201
0.068426,0.087977,0.21505,0.097752
0.078201,0.087977,0.18573,0.097752
0.078201,0.087977,0.1564,0.097752
0.068426,0.078201,0.17595,0.087977
0.078201,0.078201,0.16618,0.078201
0.078201,0.078201,0.1955,0.078201
0.078201,0.078201,0.17595,0.097752
0.078201,0.078201,0.14663,0.097752
0.078201,0.078201,0.16618,0.10753
0.078201,0.078201,0.1564,0.097752
0.078201,0.068426,0.18573,0.10753
0.087977,0.068426,0.16618,0.13685
0.087977,0.068426,0.16618,0.12708
0.078201,0.058651,0.13685,0.10753
0.078201,0.058651,0.14663,0.10753
0.068426,0.058651,0.16618,0.10753
0.078201,0.058651,0.1564,0.10753
0.068426,0.058651,0.17595,0.10753
0.068426,0.058651,0.1564,0.12708
0.068426,0.058651,0.13685,0.1173
0.058651,0.058651,0.13685,0.12708
0.058651,0.048876,0.13685,0.13685
0.058651,0.048876,0.12708,0.14663
0.058651,0.039101,0.1173,0.1564
0.058651,0.039101,0.12708,0.13685
0.058651,0.048876,0.14663,0.12708
0.087977,0.048876,0.12708,0.10753
0.087977,0.039101,0.1173,0.13685
0.078201,0.039101,0.14663,0.12708
0.068426,0.039101,0.14663,0.13685
0.078201,0.039101,0.12708,0.14663
0.068426,0.039101,0.12708,0.14663
0.068426,0.039101,0.1173,0.12708
0.058651,0.029326,0.1173,0.12708
0.058651,0.039101,0.10753,0.10753
0.058651,0.039101,0.10753,0.097752
0.058651,0.029326,0.097752,0.1173
0.048876,0.029326,0.087977,0.10753
0.048876,0.029326,0.087977,0.087977
0.048876,0.029326,0.087977,0.087977
0.048876,0.01955,0.087977,0.078201
0.048876,0.029326,0.087977,0.078201
0.039101,0.029326,0.078201,0.068426
0.048876,0.039101,0.068426,0.078201
0.048876,0.039101,0.078201,0.068426
0.048876,0.039101,0.078201,0.058651
0.039101,0.029326,0.078201,0.058651
0.048876,0.029326,0.078201,0.048876
0.048876,0.029326,0.068426,0.048876
0.048876,0.029326,0.078201,0.048876
0.048876,0.029326,0.087977,0.048876
0.039101,0.029326,0.078201,0.058651
0.039101,0.029326,0.078201,0.058651
0.039101,0.029326,0.078201,0.048876
0.029326,0.039101,0.078201,0.048876
0.029326,0.039101,0.078201,0.048876
0.029326,0.039101,0.097752,0.048876
0.029326,0.039101,0.087977,0.039101
0.029326,0.039101,0.087977,0.039101
0.029326,0.039101,0.068426,0.039101
0.01955,0.039101,0.068426,0.048876
0.029326,0.039101,0.058651,0.048876
0.01955,0.039101,0.068426,0.048876
0.01955,0.039101,0.068426,0.058651
0.01955,0.039101,0.058651,0.058651
0.01955,0.039101,0.058651,0.048876
0.01955,0.029326,0.087977,0.048876
0.01955,0.039101,0.078201,0.039101
0.01955,0.039101,0.078201,0.039101
0.029326,0.039101,0.078201,0.039101
0.039101,0.029326,0.078201,0.039101
0.048876,0.029326,0.068426,0.039101
0.039101,0.029326,0.068426,0.039101
0.029326,0.029326,0.058651,0.048876
0.039101,0.039101,0.058651,0.039101
0.048876,0.039101,0.058651,0.039101
0.078201,0.039101,0.078201,0.039101
0.087977,0.048876,0.087977,0.039101
0.087977,0.048876,0.087977,0.029326
0.097752,0.048876,0.087977,0.029326
0.097752,0.048876,0.068426,0.029326
0.087977,0.048876,0.078201,0.029326
0.087977,0.058651,0.087977,0.01955
0.078201,0.058651,0.10753,0.01955
0.087977,0.068426,0.097752,0.0097752
0.078201,0.068426,0.097752,0.01955
0.097752,0.068426,0.1173,0.01955
0.10753,0.078201,0.10753,0.029326
0.10753,0.078201,0.10753,0.029326
0.087977,0.078201,0.10753,0.029326
0.087977,0.078201,0.097752,0.029326
0.087977,0.078201,0.10753,0.01955
0.068426,0.078201,0.097752,0.029326
0.058651,0.097752,0.1173,0.01955
0.048876,0.097752,0.10753,0.01955
0.058651,0.097752,0.1173,0.01955
0.068426,0.1173,0.1173,0.0097752
0.058651,0.12708,0.10753,0.01955
0.048876,0.13685,0.1173,0.01955
0.048876,0.13685,0.1173,0.039101
0.039101,0.1564,0.10753,0.039101
0.039101,0.16618,0.1173,0.029326
0.039101,0.18573,0.10753,0.029326
0.029326,0.17595,0.12708,0.029326
0.01955,0.17595,0.1173,0.01955
0.01955,0.20528,0.12708,0.029326
0.029326,0.21505,0.1173,0.039101
0.01955,0.22483,0.12708,0.048876
0.01955,0.22483,0.14663,0.039101
0.0097752,0.22483,0.13685,0.039101
0.0097752,0.2346,0.13685,0.039101
0.01955,0.26393,0.14663,0.039101
0.0097752,0.24438,0.14663,0.029326
0.01955,0.24438,0.1564,0.029326
0.01955,0.22483,0.14663,0.029326
0.01955,0.22483,0.16618,0.029326
0.01955,0.21505,0.16618,0.029326
0.0097752,0.20528,0.1955,0.039101
0.0097752,0.18573,0.21505,0.029326
0.01955,0.16618,0.20528,0.029326
0.0097752,0.1564,0.22483,0.029326
0.01955,0.14663,0.25415,0.039101
0.029326,0.14663,0.2737,0.039101
0.01955,0.14663,0.29326,0.029326
0.01955,0.13685,0.29326,0.01955
0.029326,0.13685,0.35191,0.01955
0.039101,0.12708,0.47898,0.029326
0.039101,0.1173,0.54741,0.029326
0.039101,0.10753,0.52786,0.029326
0.029326,0.097752,0.54741,0.029326
0.029326,0.087977,0.51808,0.01955
0.029326,0.087977,0.51808,0.01955
0.029326,0.087977,0.46921,0.01955
0.029326,0.087977,0.47898,0.01955
0.029326,0.097752,0.44966,0.029326
0.039101,0.087977,0.46921,0.039101
0.039101,0.078201,0.43988,0.039101
0.029326,0.078201,0.43988,0.048876
0.029326,0.097752,0.42033,0.048876
0.029326,0.087977,0.37146,0.048876
0.039101,0.078201,0.41056,0.048876
0.048876,0.078201,0.44966,0.048876
0.048876,0.078201,0.43988,0.048876
0.058651,0.068426,0.44966,0.048876
0.058651,0.068426,0.40078,0.048876
0.068426,0.068426,0.35191,0.048876
0.078201,0.058651,0.30303,0.058651
0.087977,0.058651,0.32258,0.048876
0.087977,0.058651,0.31281,0.058651
0.087977,0.068426,0.2737,0.068426
0.078201,0.068426,0.26393,0.068426
0.097752,0.068426,0.25415,0.087977
0.097752,0.058651,0.26393,0.087977
0.097752,0.068426,0.2346,0.078201
0.097752,0.068426,0.1955,0.087977
0.097752,0.068426,0.20528,0.097752
0.1173,0.068426,0.21505,0.10753
0.10753,0.058651,0.18573,0.12708
0.1173,0.058651,0.17595,0.13685
0.13685,0.068426,0.18573,0.1564
0.13685,0.058651,0.16618,0.14663
0.13685,0.068426,0.1564,0.14663
0.12708,0.068426,0.16618,0.1564
0.1173,0.058651,0.14663,0.16618
0.12708,0.058651,0.14663,0.1564
0.10753,0.058651,0.13685,0.16618
0.097752,0.068426,0.12708,0.17595
0.097752,0.058651,0.1173,0.22483
0.087977,0.058651,0.1173,0.20528
0.078201,0.048876,0.13685,0.20528
0.078201,0.039101,0.12708,0.20528
0.078201,0.048876,0.10753,0.22483
0.068426,0.039101,0.1173,0.22483
0.058651,0.039101,0.1173,0.1955
0.048876,0.039101,0.10753,0.1955
0.048876,0.039101,0.10753,0.1564
0.048876,0.039101,0.097752,0.17595
0.039101,0.029326,0.097752,0.16618
0.039101,0.039101,0.1173,0.16618
0.039101,0.039101,0.10753,0.14663
0.048876,0.039101,0.097752,0.13685
0.039101,0.039101,0.10753,0.12708
0.039101,0.039101,0.10753,0.12708
0.039101,0.039101,0.097752,0.10753
0.048876,0.039101,0.087977,0.10753
0.029326,0.039101,0.10753,0.087977
0.029326,0.039101,0.097752,0.10753
0.029326,0.039101,0.097752,0.087977
0.039101,0.039101,0.097752,0.078201
0.039101,0.039101,0.087977,0.068426
0.039101,0.039101,0.097752,0.078201
0.048876,0.039101,0.097752,0.087977
0.048876,0.039101,0.087977,0.078201
0.039101,0.029326,0.087977,0.078201
0.039101,0.029326,0.087977,0.078201
0.039101,0.039101,0.078201,0.087977
0.039101,0.039101,0.097752,0.078201
0.039101,0.039101,0.10753,0.068426
0.039101,0.039101,0.097752,0.068426
0.039101,0.048876,0.078201,0.068426
0.039101,0.048876,0.097752,0.058651
0.039101,0.048876,0.087977,0.058651
0.029326,0.039101,0.097752,0.078201
0.029326,0.039101,0.1173,0.068426
0.01955,0.039101,0.097752,0.068426
0.01955,0.039101,0.087977,0.068426
0.01955,0.039101,0.078201,0.068426
0.01955,0.029326,0.078201,0.068426
0.01955,0.039101,0.068426,0.068426
0.01955,0.039101,0.058651,0.058651
0.01955,0.039101,0.048876,0.048876
0.01955,0.048876,0.048876,0.058651
0.01955,0.039101,0.039101,0.039101
0.01955,0.048876,0.039101,0.039101
0.039101,0.048876,0.039101,0.029326
0.039101,0.048876,0.039101,0.029326
0.039101,0.048876,0.039101,0.029326
0.029326,0.048876,0.039101,0.029326
0.01955,0.048876,0.048876,0.029326
0.01955,0.048876,0.039101,0.029326
0.0097752,0.048876,0.048876,0.029326
0.0097752,0.048876,0.048876,0.039101
0.0097752,0.048876,0.058651,0.029326
0.0097752,0.048876,0.048876,0.01955
0.01955,0.048876,0.058651,0.01955
0.029326,0.048876,0.058651,0.01955
0.029326,0.048876,0.068426,0.01955
0.029326,0.048876,0.068426,0.01955
0.01955,0.058651,0.068426,0.01955
0.01955,0.058651,0.058651,0.01955
0.01955,0.068426,0.058651,0.01955
0.01955,0.078201,0.058651,0.029326
0.01955,0.087977,0.048876,0.029326
0.01955,0.097752,0.058651,0.029326
0.01955,0.097752,0.048876,0.029326
0.01955,0.097752,0.039101,0.029326
0.01955,0.10753,0.048876,0.039101
0.029326,0.097752,0.048876,0.029326
0.01955,0.097752,0.048876,0.029326
0.01955,0.097752,0.048876,0.029326
0.01955,0.10753,0.058651,0.01955
0.0097752,0.10753,0.068426,0.01955
0.0097752,0.12708,0.087977,0.01955
0.0097752,0.14663,0.078201,0.01955
0.0097752,0.1564,0.068426,0.01955
0,0.17595,0.068426,0.01955
0,0.18573,0.078201,0.01955
0,0.18573,0.087977,0.029326
0,0.22483,0.10753,0.029326
0,0.2737,0.097752,0.029326
0,0.28348,0.10753,0.048876
0,0.28348,0.10753,0.048876
0.0097752,0.30303,0.12708,0.048876
0.0097752,0.31281,0.17595,0.048876
0.0097752,0.28348,0.16618,0.058651
0.0097752,0.26393,0.14663,0.048876
0.01955,0.26393,0.14663,0.048876
0.01955,0.26393,0.1564,0.039101
0.01955,0.24438,0.13685,0.029326
0.01955,0.22483,0.13685,0.029326
0.01955,0.21505,0.13685,0.029326
0.01955,0.1955,0.13685,0.029326
0.01955,0.18573,0.13685,0.01955
0.01955,0.1955,0.13685,0.0097752
0.029326,0.17595,0.14663,0.0097752
0.029326,0.16618,0.13685,0.0097752
0.048876,0.1564,0.1564,0.0097752
0.039101,0.16618,0.1564,0.0097752
0.039101,0.16618,0.14663,0.0097752
0.039101,0.1564,0.18573,0.0097752
0.048876,0.14663,0.2346,0.0097752
0.058651,0.12708,0.24438,0.0097752
0.048876,0.1173,0.2346,0.0097752
0.048876,0.1173,0.24438,0.0097752
0.048876,0.10753,0.24438,0.0097752
0.048876,0.10753,0.24438,0.0097752
0.058651,0.097752,0.29326,0.0097752
0.068426,0.087977,0.31281,0.0097752
0.078201,0.087977,0.34213,0.0097752
0.078201,0.087977,0.37146,0
0.068426,0.078201,0.44966,0
0.078201,0.078201,0.53763,0
0.078201,0.078201,0.67449,0.0097752
0.078201,0.087977,0.66471,0
0.078201,0.078201,0.73314,0.0097752
0.068426,0.078201,0.75269,0
0.078201,0.078201,0.71359,0.0097752
0.068426,0.087977,0.71359,0
0.068426,0.087977,0.63539,0.0097752
0.078201,0.087977,0.61584,0.0097752
0.078201,0.078201,0.57674,0.0097752
0.087977,0.087977,0.52786,0
0.087977,0.087977,0.46921,0.0097752
0.087977,0.078201,0.43988,0.01955
0.087977,0.068426,0.38123,0.029326
0.078201,0.078201,0.33236,0.029326
0.087977,0.068426,0.39101,0.039101
0.097752,0.068426,0.32258,0.039101
0.058651,0.048876,0.039101,0.28348
1.0948,1.5445,0.45943,0.24438
0.86022,1.2121,0.38123,0.20528
0.69404,0.95797,0.31281,0.18573
0.54741,0.75269,0.25415,0.16618
0.43988,0.59629,0.20528,0.14663
0.35191,0.47898,0.16618,0.12708
0.28348,0.39101,0.13685,0.1173
0.2346,0.32258,0.1173,0.10753
0.18573,0.26393,0.097752,0.10753
0.16618,0.21505,0.10753,0.10753
0.13685,0.17595,0.097752,0.097752
0.12708,0.1564,0.078201,0.097752
0.097752,0.12708,0.068426,0.087977
0.097752,0.1173,0.068426,0.078201
0.097752,0.097752,0.068426,0.078201
0.087977,0.087977,0.058651,0.068426
0.10753,0.078201,0.068426,0.068426
0.10753,0.078201,0.058651,0.058651
0.10753,0.068426,0.058651,0.048876
0.087977,0.068426,0.068426,0.058651
0.087977,0.058651,0.068426,0.048876
0.087977,0.058651,0.068426,0.048876
0.078201,0.068426,0.087977,0.048876
0.087977,0.058651,0.078201,0.048876
0.097752,0.068426,0.078201,0.048876
0.087977,0.078201,0.097752,0.039101
0.087977,0.078201,0.10753,0.039101
0.097752,0.068426,0.10753,0.029326
0.10753,0.068426,0.10753,0.039101
0.10753,0.068426,0.1173,0.029326
0.097752,0.078201,0.12708,0.039101
0.10753,0.087977,0.12708,0.029326
0.1173,0.087977,0.1173,0.029326
0.1173,0.087977,0.10753,0.029326
0.1173,0.078201,0.12708,0.029326
0.10753,0.068426,0.13685,0.01955
0.1173,0.068426,0.1173,0.01955
0.1173,0.068426,0.1173,0.029326
0.10753,0.078201,0.17595,0.029326
0.097752,0.087977,0.17595,0.039101
0.087977,0.087977,0.1564,0.039101
0.087977,0.10753,0.1564,0.029326
0.10753,0.097752,0.16618,0.029326
0.10753,0.097752,0.17595,0.039101
0.10753,0.097752,0.17595,0.039101
0.10753,0.1173,0.1955,0.029326
0.097752,0.1173,0.22483,0.01955
0.10753,0.12708,0.24438,0.01955
0.087977,0.14663,0.24438,0.01955
0.087977,0.14663,0.25415,0.01955
0.097752,0.14663,0.2737,0.01955
0.097752,0.17595,0.29326,0.029326
0.097752,0.20528,0.28348,0.029326
0.097752,0.21505,0.31281,0.039101
0.087977,0.21505,0.36168,0.039101
0.087977,0.22483,0.33236,0.039101
0.087977,0.26393,0.33236,0.039101
0.078201,0.29326,0.40078,0.029326
0.078201,0.31281,0.43011,0.029326
0.068426,0.31281,0.42033,0.029326
0.068426,0.35191,0.43988,0.039101
0.078201,0.37146,0.42033,0.039101
0.078201,0.39101,0.42033,0.039101
0.068426,0.39101,0.41056,0.039101
0.068426,0.45943,0.37146,0.029326
0.068426,0.68426,0.35191,0.01955
0.068426,0.77224,0.31281,0.029326
0.058651,0.69404,0.28348,0.048876
0.048876,0.66471,0.28348,0.058651
0.039101,0.64516,0.25415,0.068426
0.039101,0.63539,0.28348,0.058651
0.048876,0.55718,0.25415,0.058651
0.048876,0.46921,0.22483,0.058651
0.048876,0.40078,0.22483,0.058651
0.039101,0.34213,0.2346,0.058651
0.039101,0.29326,0.22483,0.048876
0.039101,0.26393,0.20528,0.048876
0.039101,0.2346,0.21505,0.039101
0.039101,0.1955,0.22483,0.048876
0.039101,0.18573,0.28348,0.058651
0.048876,0.17595,0.25415,0.058651
0.048876,0.14663,0.21505,0.048876
0.048876,0.1564,0.21505,0.048876
0.039101,0.1564,0.21505,0.048876
0.048876,0.12708,0.17595,0.048876
0.039101,0.1173,0.1564,0.048876
0.039101,0.10753,0.16618,0.039101
0.029326,0.1173,0.17595,0.039101
0.039101,0.10753,0.16618,0.029326
0.039101,0.10753,0.17595,0.029326
0.039101,0.10753,0.18573,0.029326
0.029326,0.097752,0.1564,0.029326
0.029326,0.097752,0.13685,0.029326
0.029326,0.10753,0.12708,0.029326
0.039101,0.10753,0.10753,0.029326
0.039101,0.10753,0.13685,0.029326
0.048876,0.10753,0.12708,0.029326
0.058651,0.087977,0.1564,0.029326
0.048876,0.087977,0.1564,0.039101
0.048876,0.087977,0.16618,0.048876
0.058651,0.087977,0.16618,0.048876
0.058651,0.087977,0.14663,0.048876
0.048876,0.078201,0.17595,0.068426
0.039101,0.068426,0.1564,0.058651
0.039101,0.068426,0.13685,0.058651
0.029326,0.068426,0.12708,0.058651
0.039101,0.068426,0.16618,0.058651
0.029326,0.068426,0.1564,0.058651
0.029326,0.058651,0.12708,0.058651
0.039101,0.058651,0.14663,0.058651
0.039101,0.058651,0.12708,0.068426
0.029326,0.058651,0.13685,0.068426
0.01955,0.048876,0.14663,0.068426
0.01955,0.048876,0.12708,0.068426
0.01955,0.048876,0.10753,0.068426
0.029326,0.048876,0.10753,0.078201
0.029326,0.048876,0.097752,0.068426
0.01955,0.048876,0.078201,0.068426
0.01955,0.048876,0.068426,0.058651
0.0097752,0.048876,0.087977,0.058651
0.01955,0.048876,0.068426,0.068426
0.01955,0.048876,0.068426,0.068426
0.01955,0.048876,0.068426,0.087977
0.01955,0.048876,0.068426,0.087977
0.0097752,0.048876,0.078201,0.097752
0.01955,0.048876,0.078201,0.097752
0.0097752,0.048876,0.068426,0.12708
0.0097752,0.058651,0.068426,0.12708
0.01955,0.058651,0.087977,0.14663
0.0097752,0.048876,0.068426,0.14663
0.0097752,0.048876,0.068426,0.13685
0.0097752,0.039101,0.087977,0.14663
0.0097752,0.039101,0.12708,0.1564
0.0097752,0.039101,0.14663,0.14663
0.0097752,0.039101,0.12708,0.13685
0.01955,0.039101,0.12708,0.14663
0.0097752,0.039101,0.097752,0.14663
0.0097752,0.039101,0.087977,0.13685
0.0097752,0.048876,0.087977,0.14663
0.0097752,0.039101,0.078201,0.1564
0.0097752,0.039101,0.068426,0.14663
0.0097752,0.039101,0.058651,0.17595
0.0097752,0.048876,0.058651,0.1564
0.0097752,0.048876,0.048876,0.14663
0.01955,0.048876,0.048876,0.14663
0.029326,0.048876,0.048876,0.13685
0.01955,0.048876,0.039101,0.13685
0.029326,0.048876,0.048876,0.1173
0.029326,0.048876,0.058651,0.1173
0.01955,0.048876,0.058651,0.13685
0.029326,0.048876,0.058651,0.12708
0.029326,0.048876,0.058651,0.1173
0.048876,0.068426,0.058651,0.097752
0.039101,0.068426,0.068426,0.087977
0.039101,0.068426,0.087977,0.087977
0.048876,0.068426,0.1173,0.078201
0.068426,0.068426,0.1173,0.078201
0.078201,0.068426,0.12708,0.078201
0.097752,0.078201,0.1173,0.078201
0.10753,0.078201,0.1173,0.078201
0.087977,0.097752,0.12708,0.068426
0.087977,0.10753,0.13685,0.058651
0.097752,0.097752,0.13685,0.048876
0.097752,0.10753,0.13685,0.048876
0.10753,0.1173,0.13685,0.048876
0.097752,0.12708,0.12708,0.048876
0.087977,0.13685,0.14663,0.058651
0.10753,0.1564,0.14663,0.068426
0.087977,0.14663,0.1564,0.068426
0.1173,0.17595,0.14663,0.078201
0.1173,0.20528,0.16618,0.078201
0.10753,0.21505,0.17595,0.058651
0.1173,0.20528,0.18573,0.058651
0.097752,0.21505,0.16618,0.058651
0.097752,0.20528,0.16618,0.048876
0.10753,0.2346,0.16618,0.048876
0.13685,0.26393,0.1564,0.048876
0.13685,0.26393,0.14663,0.039101
0.14663,0.28348,0.17595,0.039101
0.13685,0.31281,0.18573,0.039101
0.14663,0.35191,0.16618,0.048876
0.1564,0.35191,0.18573,0.039101
0.14663,0.41056,0.21505,0.048876
0.13685,0.38123,0.24438,0.039101
0.12708,0.40078,0.30303,0.048876
0.1173,0.39101,0.32258,0.048876
0.12708,0.35191,0.30303,0.048876
0.12708,0.35191,0.35191,0.048876
0.1173,0.34213,0.37146,0.048876
0.12708,0.30303,0.36168,0.058651
0.1173,0.29326,0.38123,0.068426
0.10753,0.2737,0.36168,0.058651
0.10753,0.24438,0.41056,0.058651
0.097752,0.20528,0.37146,0.058651
0.1173,0.18573,0.37146,0.048876
0.13685,0.17595,0.38123,0.048876
0.12708,0.17595,0.34213,0.039101
0.14663,0.17595,0.35191,0.029326
0.12708,0.16618,0.35191,0.029326
0.14663,0.1564,0.36168,0.029326
0.13685,0.14663,0.38123,0.029326
0.12708,0.16618,0.44966,0.029326
0.12708,0.17595,0.38123,0.039101
0.12708,0.16618,0.32258,0.029326
0.1173,0.20528,0.30303,0.029326
0.12708,0.22483,0.29326,0.01955
0.1173,0.20528,0.30303,0.01955
0.10753,0.16618,0.26393,0.01955
0.097752,0.16618,0.26393,0.01955
0.097752,0.1564,0.26393,0.029326
0.087977,0.13685,0.2346,0.01955
0.078201,0.1173,0.21505,0.01955
0.078201,0.10753,0.21505,0.01955
0.068426,0.097752,0.17595,0.01955
0.068426,0.087977,0.2346,0.01955
0.068426,0.078201,0.2346,0.01955
0.068426,0.078201,0.21505,0.01955
0.058651,0.078201,0.1955,0.0097752
0.048876,0.087977,0.26393,0.0097752
0.068426,0.078201,0.21505,0.0097752
0.078201,0.078201,0.1955,0.0097752
0.068426,0.078201,0.18573,0
0.068426,0.068426,0.18573,0.0097752
0.068426,0.068426,0.18573,0.0097752
0.068426,0.058651,0.18573,0.0097752
0.068426,0.058651,0.1564,0.0097752
0.048876,0.048876,0.1955,0.01955
0.058651,0.058651,0.21505,0.0097752
0.048876,0.058651,0.20528,0.0097752
0.058651,0.068426,0.17595,0.0097752
0.058651,0.068426,0.14663,0.0097752
0.048876,0.058651,0.14663,0.0097752
0.058651,0.058651,0.12708,0.0097752
0.048876,0.068426,0.13685,0
0.039101,0.068426,0.12708,0
0.048876,0.058651,0.10753,0
0.048876,0.048876,0.097752,0
0.048876,0.068426,0.097752,0
0.048876,0.068426,0.097752,0
0.039101,0.058651,0.097752,0
0.039101,0.058651,0.097752,0
0.039101,0.058651,0.097752,0
0.029326,0.058651,0.10753,0
0.029326,0.048876,0.10753,0.0097752
0.029326,0.058651,0.10753,0.0097752
0.029326,0.058651,0.12708,0.0097752
0.029326,0.068426,0.1173,0.0097752
0.029326,0.058651,0.10753,0.0097752
0.029326,0.058651,0.097752,0.01955
0.029326,0.058651,0.10753,0.01955
0.029326,0.058651,0.097752,0.029326
0.029326,0.048876,0.087977,0.029326
0.039101,0.048876,0.087977,0.029326
0.039101,0.048876,0.078201,0.029326
0.039101,0.058651,0.078201,0.01955
0.029326,0.058651,0.087977,0.029326
0.029326,0.058651,0.087977,0.029326
0.039101,0.068426,0.078201,0.01955
0.039101,0.068426,0.078201,0.029326
0.039101,0.058651,0.068426,0.01955
0.048876,0.058651,0.078201,0.01955
0.058651,0.058651,0.078201,0.029326
0.068426,0.058651,0.097752,0.01955
0.068426,0.048876,0.097752,0.01955
0.068426,0.048876,0.078201,0.01955
0.068426,0.039101,0.068426,0.01955
0.078201,0.048876,0.078201,0.01955
0.087977,0.058651,0.068426,0.029326
0.087977,0.048876,0.068426,0.039101
0.078201,0.048876,0.068426,0.048876
0.058651,0.048876,0.068426,0.058651
0.058651,0.039101,0.068426,0.058651
0.048876,0.039101,0.068426,0.068426
0.058651,0.048876,0.078201,0.078201
0.078201,0.048876,0.078201,0.087977
0.068426,0.039101,0.068426,0.097752
0.048876,0.039101,0.058651,0.087977
0.039101,0.039101,0.058651,0.097752
0.039101,0.039101,0.068426,0.087977
0.039101,0.039101,0.068426,0.097752
0.029326,0.048876,0.048876,0.10753
0.01955,0.039101,0.058651,0.097752
0.01955,0.039101,0.058651,0.10753
0.029326,0.048876,0.058651,0.10753
0.029326,0.048876,0.058651,0.10753
0.029326,0.048876,0.068426,0.097752
0.039101,0.058651,0.068426,0.097752
0.039101,0.087977,0.068426,0.12708
0.048876,0.097752,0.068426,0.1173
0.039101,0.078201,0.078201,0.12708
0.029326,0.097752,0.087977,0.13685
0.029326,0.087977,0.078201,0.1173
0.01955,0.087977,0.087977,0.1173
0.01955,0.087977,0.078201,0.12708
0.01955,0.097752,0.078201,0.12708
0.01955,0.097752,0.087977,0.14663
0.029326,0.097752,0.087977,0.1564
0.01955,0.087977,0.087977,0.16618
0.01955,0.087977,0.087977,0.16618
0.01955,0.097752,0.097752,0.14663
0.01955,0.087977,0.10753,0.13685
0.01955,0.097752,0.097752,0.14663
0.039101,0.087977,0.10753,0.14663
0.048876,0.10753,0.097752,0.14663
0.039101,0.10753,0.10753,0.14663
0.048876,0.1173,0.1173,0.13685
0.039101,0.13685,0.097752,0.13685
0.048876,0.12708,0.10753,0.12708
0.048876,0.13685,0.1173,0.12708
0.048876,0.14663,0.1173,0.12708
0.048876,0.14663,0.13685,0.1173
0.058651,0.14663,0.1564,0.13685
0.068426,0.14663,0.18573,0.12708
0.078201,0.17595,0.16618,0.1173
0.097752,0.17595,0.16618,0.1173
0.087977,0.1955,0.16618,0.097752
0.078201,0.1955,0.17595,0.097752
0.087977,0.1955,0.1955,0.087977
0.10753,0.17595,0.20528,0.078201
0.097752,0.18573,0.21505,0.078201
0.087977,0.1955,0.22483,0.078201
0.097752,0.1955,0.24438,0.068426
0.087977,0.1955,0.33236,0.058651
0.087977,0.1955,0.37146,0.048876
0.078201,0.1955,0.38123,0.048876
0.087977,0.22483,0.51808,0.039101
0.097752,0.24438,0.60606,0.048876
0.097752,0.26393,0.64516,0.048876
0.087977,0.2737,0.62561,0.058651
0.087977,0.35191,0.56696,0.048876
0.087977,0.37146,0.52786,0.068426
0.087977,0.34213,0.56696,0.058651
0.097752,0.37146,0.54741,0.058651
0.097752,0.37146,0.65494,0.048876
0.10753,0.35191,0.60606,0.048876
0.1173,0.34213,0.53763,0.058651
0.1173,0.35191,0.52786,0.048876
0.10753,0.36168,0.49853,0.058651
0.097752,0.42033,0.55718,0.058651
0.1173,0.42033,0.49853,0.058651
0.14663,0.42033,0.45943,0.058651
0.14663,0.35191,0.43011,0.048876
0.14663,0.32258,0.38123,0.039101
0.14663,0.29326,0.40078,0.039101
0.14663,0.30303,0.35191,0.039101
0.13685,0.2737,0.2737,0.039101
0.13685,0.24438,0.33236,0.029326
0.14663,0.21505,0.33236,0.029326
0.13685,0.1955,0.29326,0.039101
0.13685,0.18573,0.2737,0.039101
0.13685,0.18573,0.24438,0.048876
0.12708,0.16618,0.22483,0.039101
0.14663,0.18573,0.25415,0.039101
0.12708,0.16618,0.21505,0.039101
0.12708,0.17595,0.20528,0.048876
0.1173,0.1564,0.21505,0.058651
0.097752,0.14663,0.18573,0.048876
0.10753,0.13685,0.18573,0.048876
0.10753,0.12708,0.17595,0.048876
0.087977,0.13685,0.1564,0.039101
0.078201,0.12708,0.1564,0.039101
0.087977,0.1173,0.17595,0.048876
0.068426,0.1173,0.1564,0.058651
0.068426,0.10753,0.14663,0.078201
0.068426,0.12708,0.14663,0.068426
0.078201,0.12708,0.12708,0.058651
0.078201,0.1173,0.17595,0.058651
0.078201,0.10753,0.14663,0.048876
0.078201,0.10753,0.14663,0.039101
0.068426,0.097752,0.13685,0.039101
0.058651,0.097752,0.14663,0.029326
0.058651,0.097752,0.14663,0.01955
0.058651,0.097752,0.14663,0.0097752
0.078201,0.10753,0.13685,0.0097752
0.078201,0.097752,0.1173,0.0097752
0.078201,0.097752,0.12708,0.0097752
0.078201,0.097752,0.12708,0.01955
0.078201,0.087977,0.12708,0.029326
0.087977,0.078201,0.10753,0.029326
0.068426,0.078201,0.10753,0.029326
0.068426,0.078201,0.1173,0.029326
0.068426,0.087977,0.097752,0.01955
0.068426,0.078201,0.087977,0.01955
0.058651,0.078201,0.10753,0.0097752
0.048876,0.078201,0.097752,0.0097752
0.058651,0.078201,0.087977,0.0097752
0.058651,0.068426,0.087977,0.0097752
0.058651,0.058651,0.078201,0
0.058651,0.058651,0.078201,0
0.058651,0.048876,0.078201,0
0.058651,0.058651,0.068426,0
0.048876,0.058651,0.058651,0
0.039101,0.058651,0.068426,0
0.029326,0.058651,0.068426,0
0.039101,0.048876,0.068426,0.0097752
0.029326,0.048876,0.058651,0
0.029326,0.048876,0.058651,0
0.01955,0.048876,0.058651,0
0.029326,0.048876,0.058651,0.0097752
0.01955,0.048876,0.058651,0
0.029326,0.058651,0.058651,0.0097752
0.01955,0.058651,0.058651,0.01955
0.0097752,0.058651,0.058651,0.01955
0.01955,0.058651,0.10753,0.01955
0.01955,0.058651,0.10753,0.0097752
0.029326,0.058651,0.087977,0.0097752
0.029326,0.058651,0.078201,0.01955
0.029326,0.048876,0.078201,0.029326
0.029326,0.048876,0.068426,0.048876
0.029326,0.048876,0.058651,0.048876
0.029326,0.048876,0.058651,0.048876
0.01955,0.048876,0.058651,0.029326
0.01955,0.039101,0.058651,0.039101
0.0097752,0.048876,0.058651,0.039101
0.0097752,0.048876,0.058651,0.068426
0.0097752,0.048876,0.058651,0.078201
0.0097752,0.039101,0.058651,0.078201
0.0097752,0.048876,0.048876,0.078201
0.0097752,0.048876,0.048876,0.097752
0.01955,0.039101,0.058651,0.078201
0.01955,0.039101,0.058651,0.068426
0.01955,0.039101,0.078201,0.068426
0.029326,0.048876,0.078201,0.068426
0.039101,0.039101,0.068426,0.068426
0.039101,0.039101,0.078201,0.068426
0.039101,0.048876,0.078201,0.058651
0.039101,0.058651,0.087977,0.068426
0.048876,0.058651,0.10753,0.097752
0.068426,0.058651,0.10753,0.097752
0.068426,0.068426,0.10753,0.087977
0.068426,0.068426,0.12708,0.087977
0.078201,0.058651,0.1173,0.1173
0.078201,0.058651,0.1173,0.13685
0.068426,0.068426,0.1173,0.14663
0.058651,0.068426,0.12708,0.13685
0.048876,0.068426,0.1173,0.12708
0.048876,0.068426,0.1173,0.12708
0.039101,0.087977,0.10753,0.1173
0.029326,0.078201,0.13685,0.1173
0.029326,0.078201,0.1173,0.13685
0.029326,0.087977,0.13685,0.13685
0.029326,0.097752,0.13685,0.14663
0.029326,0.087977,0.14663,0.18573
0.029326,0.097752,0.1564,0.18573
0.01955,0.097752,0.16618,0.16618
0.01955,0.097752,0.18573,0.16618
0.01955,0.087977,0.18573,0.16618
0.01955,0.097752,0.21505,0.1564
0.01955,0.097752,0.20528,0.14663
0.01955,0.087977,0.20528,0.13685
0.01955,0.097752,0.20528,0.14663
0.01955,0.097752,0.20528,0.13685
0.01955,0.097752,0.24438,0.14663
0.01955,0.1173,0.25415,0.1564
0.01955,0.1173,0.2346,0.1564
0.01955,0.1173,0.29326,0.16618
0.01955,0.1173,0.28348,0.16618
0.01955,0.14663,0.30303,0.16618
0.01955,0.16618,0.30303,0.14663
0.01955,0.20528,0.29326,0.1564
0.029326,0.24438,0.40078,0.14663
0.029326,0.30303,0.37146,0.13685
0.029326,0.29326,0.38123,0.13685
0.039101,0.34213,0.37146,0.10753
0.048876,0.43011,0.59629,0.10753
0.058651,0.46921,0.57674,0.10753
0.048876,0.47898,0.54741,0.097752
0.048876,0.47898,0.60606,0.087977
0.058651,0.51808,0.64516,0.078201
0.058651,0.57674,0.62561,0.097752
0.068426,0.56696,0.57674,0.097752
0.058651,0.53763,0.54741,0.087977
0.058651,0.50831,0.51808,0.087977
0.058651,0.51808,0.52786,0.078201
0.078201,0.44966,0.48876,0.068426
0.1173,0.41056,0.42033,0.068426
0.12708,0.37146,0.39101,0.068426
0.1173,0.33236,0.41056,0.058651
0.13685,0.31281,0.38123,0.058651
0.12708,0.31281,0.35191,0.078201
0.12708,0.29326,0.33236,0.068426
0.12708,0.26393,0.30303,0.058651
0.12708,0.22483,0.33236,0.058651
0.13685,0.21505,0.40078,0.048876
0.1173,0.2346,0.37146,0.039101
0.14663,0.21505,0.31281,0.039101
0.14663,0.20528,0.33236,0.039101
0.13685,0.18573,0.30303,0.048876
0.13685,0.16618,0.32258,0.039101
0.1173,0.14663,0.32258,0.039101
0.10753,0.13685,0.30303,0.029326
0.1173,0.12708,0.29326,0.048876
0.12708,0.14663,0.33236,0.039101
0.1173,0.13685,0.28348,0.029326
0.10753,0.12708,0.32258,0.029326
0.1173,0.12708,0.30303,0.029326
0.13685,0.13685,0.30303,0.029326
0.12708,0.14663,0.2737,0.029326
0.12708,0.14663,0.22483,0.029326
0.13685,0.1564,0.21505,0.039101
0.12708,0.14663,0.20528,0.039101
0.12708,0.14663,0.21505,0.048876
0.12708,0.14663,0.20528,0.039101
0.1173,0.12708,0.18573,0.039101
0.13685,0.1173,0.21505,0.039101
0.12708,0.1173,0.22483,0.048876
0.1173,0.10753,0.18573,0.048876
0.13685,0.087977,0.17595,0.048876
0.12708,0.097752,0.17595,0.058651
0.1173,0.10753,0.1564,0.058651
0.10753,0.087977,0.14663,0.058651
0.087977,0.087977,0.12708,0.058651
0.097752,0.087977,0.17595,0.048876
0.087977,0.087977,0.14663,0.048876
0.078201,0.078201,0.17595,0.048876
0.068426,0.078201,0.17595,0.058651
0.078201,0.078201,0.17595,0.068426
0.068426,0.078201,0.17595,0.058651
0.058651,0.078201,0.16618,0.048876
0.058651,0.078201,0.14663,0.048876
0.048876,0.068426,0.1564,0.048876
0.048876,0.078201,0.14663,0.048876
0.048876,0.058651,0.13685,0.039101
0.048876,0.068426,0.12708,0.029326
0.048876,0.068426,0.1173,0.029326
0.048876,0.058651,0.1173,0.01955
0.048876,0.058651,0.1173,0.0097752
0.058651,0.058651,0.10753,0.01955
0.058651,0.058651,0.10753,0.029326
0.058651,0.048876,0.10753,0.058651
0.058651,0.048876,0.097752,0.058651
0.058651,0.048876,0.087977,0.048876
0.048876,0.039101,0.078201,0.078201
0.058651,0.039101,0.068426,0.078201
0.058651,0.048876,0.068426,0.068426
0.058651,0.058651,0.058651,0.058651
0.058651,0.058651,0.058651,0.068426
0.048876,0.058651,0.058651,0.078201
0.048876,0.058651,0.058651,0.087977
0.048876,0.048876,0.048876,0.087977
0.048876,0.048876,0.039101,0.068426
0.048876,0.048876,0.048876,0.058651
0.039101,0.048876,0.048876,0.068426
0.039101,0.048876,0.048876,0.068426
0.039101,0.048876,0.048876,0.058651
0.048876,0.058651,0.039101,0.048876
0.048876,0.048876,0.058651,0.039101
0.039101,0.048876,0.068426,0.029326
0.039101,0.048876,0.068426,0.029326
0.058651,0.048876,0.058651,0.01955
0.068426,0.048876,0.058651,0.01955
0.087977,0.048876,0.058651,0.029326
0.078201,0.048876,0.058651,0.039101
0.068426,0.039101,0.048876,0.048876
0.058651,0.039101,0.068426,0.039101
0.068426,0.039101,0.058651,0.039101
0.078201,0.039101,0.068426,0.039101
0.068426,0.039101,0.068426,0.048876
0.068426,0.029326,0.078201,0.048876
0.068426,0.039101,0.058651,0.039101
0.058651,0.039101,0.068426,0.039101
0.058651,0.048876,0.078201,0.039101
0.048876,0.048876,0.068426,0.029326
0.048876,0.039101,0.068426,0.039101
0.048876,0.048876,0.087977,0.048876
0.058651,0.048876,0.087977,0.048876
0.058651,0.048876,0.097752,0.068426
0.058651,0.048876,0.097752,0.078201
0.058651,0.058651,0.1173,0.068426
0.039101,0.058651,0.12708,0.087977
0.048876,0.068426,0.13685,0.087977
0.048876,0.068426,0.12708,0.087977
0.039101,0.058651,0.14663,0.078201
0.039101,0.058651,0.13685,0.087977
0.039101,0.058651,0.14663,0.087977
0.048876,0.058651,0.16618,0.087977
0.048876,0.048876,0.16618,0.087977
0.048876,0.048876,0.16618,0.10753
0.039101,0.048876,0.1564,0.1173
0.039101,0.048876,0.14663,0.1173
0.039101,0.058651,0.14663,0.1173
0.029326,0.058651,0.14663,0.1173
0.01955,0.048876,0.16618,0.10753
0.01955,0.048876,0.16618,0.1173
0.01955,0.058651,0.1564,0.1173
0.01955,0.058651,0.1564,0.1173
0.01955,0.068426,0.14663,0.1173
0.01955,0.068426,0.1955,0.12708
0.01955,0.078201,0.17595,0.16618
0.01955,0.078201,0.20528,0.16618
0.01955,0.078201,0.2346,0.17595
0.01955,0.078201,0.24438,0.21505
0.01955,0.068426,0.25415,0.21505
0.01955,0.058651,0.26393,0.20528
0.01955,0.078201,0.26393,0.18573
0.01955,0.078201,0.32258,0.16618
0.01955,0.087977,0.29326,0.16618
0.0097752,0.097752,0.32258,0.17595
0.0097752,0.10753,0.35191,0.18573
0.01955,0.097752,0.35191,0.16618
0.01955,0.1173,0.46921,0.20528
0.01955,0.1173,0.63539,0.18573
0.01955,0.10753,0.65494,0.17595
0.01955,0.10753,0.61584,0.17595
0.01955,0.097752,0.59629,0.1955
0.029326,0.087977,0.72336,0.17595
0.029326,0.097752,0.62561,0.16618
0.029326,0.097752,0.63539,0.1564
0.029326,0.10753,0.58651,0.13685
0.01955,0.1173,0.57674,0.12708
0.01955,0.1173,0.56696,0.1173
0.01955,0.12708,0.49853,0.12708
0.029326,0.14663,0.43988,0.12708
0.029326,0.14663,0.60606,0.1173
0.048876,0.1564,0.52786,0.12708
0.048876,0.16618,0.47898,0.12708
0.048876,0.18573,0.41056,0.1173
0.048876,0.22483,0.36168,0.12708
0.048876,0.22483,0.36168,0.1173
0.058651,0.2737,0.35191,0.10753
0.058651,0.2737,0.30303,0.097752
0.058651,0.24438,0.24438,0.087977
0.048876,0.24438,0.24438,0.078201
0.048876,0.25415,0.24438,0.068426
0.058651,0.2346,0.1955,0.087977
0.068426,0.2346,0.17595,0.087977
0.078201,0.21505,0.17595,0.078201
0.078201,0.21505,0.16618,0.078201
0.078201,0.21505,0.14663,0.078201
0.078201,0.21505,0.1955,0.068426
0.097752,0.20528,0.17595,0.068426
0.087977,0.1955,0.14663,0.078201
0.078201,0.17595,0.1564,0.087977
0.097752,0.1564,0.13685,0.068426
0.087977,0.14663,0.14663,0.068426
0.097752,0.12708,0.13685,0.058651
0.097752,0.1173,0.13685,0.058651
0.1173,0.13685,0.1173,0.048876
0.1173,0.16618,0.1173,0.058651
0.1173,0.1564,0.10753,0.068426
0.10753,0.16618,0.10753,0.058651
0.12708,0.16618,0.097752,0.048876
0.1173,0.1564,0.097752,0.048876
0.10753,0.13685,0.087977,0.048876
0.10753,0.1173,0.087977,0.058651
0.10753,0.10753,0.087977,0.048876
0.10753,0.10753,0.087977,0.039101
0.1173,0.087977,0.078201,0.048876
0.12708,0.078201,0.068426,0.048876
0.1173,0.068426,0.068426,0.048876
0.12708,0.078201,0.068426,0.039101
0.1173,0.078201,0.058651,0.039101
0.1173,0.078201,0.068426,0.039101
0.1173,0.078201,0.068426,0.039101
0.1173,0.068426,0.068426,0.029326
0.10753,0.078201,0.068426,0.029326
0.097752,0.068426,0.058651,0.029326
0.1173,0.068426,0.068426,0.029326
0.097752,0.068426,0.058651,0.039101
0.087977,0.078201,0.068426,0.029326
0.078201,0.078201,0.058651,0.029326
0.078201,0.068426,0.068426,0.039101
0.068426,0.068426,0.058651,0.029326
0.068426,0.058651,0.068426,0.01955
0.058651,0.058651,0.068426,0.01955
0.068426,0.048876,0.078201,0.01955
0.078201,0.048876,0.058651,0.01955
0.068426,0.048876,0.058651,0.01955
0.058651,0.048876,0.058651,0.01955
0.048876,0.048876,0.058651,0.0097752
0.058651,0.039101,0.058651,0.0097752
0.058651,0.048876,0.058651,0.01955
0.058651,0.048876,0.058651,0.0097752
0.048876,0.048876,0.058651,0.01955
0.058651,0.048876,0.068426,0.0097752
0.068426,0.039101,0.058651,0.01955
0.068426,0.048876,0.068426,0.0097752
0.068426,0.048876,0.058651,0.0097752
0.068426,0.048876,0.078201,0.0097752
0.058651,0.048876,0.068426,0.0097752
0.078201,0.048876,0.058651,0.029326
0.058651,0.039101,0.048876,0.039101
0.068426,0.039101,0.039101,0.048876
0.068426,0.048876,0.048876,0.048876
0.068426,0.058651,0.048876,0.058651
0.087977,0.058651,0.058651,0.078201
0.068426,0.058651,0.068426,0.097752
0.087977,0.068426,0.068426,0.087977
0.078201,0.058651,0.087977,0.087977
0.078201,0.068426,0.097752,0.097752
0.068426,0.058651,0.097752,0.1173
0.068426,0.058651,0.097752,0.12708
0.068426,0.048876,0.097752,0.14663
0.058651,0.039101,0.10753,0.14663
0.048876,0.039101,0.10753,0.13685
0.039101,0.039101,0.10753,0.12708
0.029326,0.048876,0.1173,0.097752
0.039101,0.048876,0.12708,0.097752
0.039101,0.048876,0.12708,0.087977
0.029326,0.048876,0.10753,0.068426
0.01955,0.048876,0.1173,0.058651
0.01955,0.048876,0.14663,0.048876
0.029326,0.048876,0.14663,0.039101
0.029326,0.039101,0.12708,0.029326
0.029326,0.039101,0.1564,0.039101
0.029326,0.039101,0.20528,0.048876
0.01955,0.039101,0.1955,0.048876
0.01955,0.029326,0.21505,0.048876
0.01955,0.029326,0.26393,0.048876
0.0097752,0.029326,0.2737,0.048876
0.0097752,0.029326,0.26393,0.058651
0.0097752,0.039101,0.30303,0.068426
0.0097752,0.039101,0.30303,0.078201
0.0097752,0.039101,0.2737,0.087977
0.0097752,0.048876,0.26393,0.087977
0.0097752,0.039101,0.28348,0.078201
0.01955,0.048876,0.31281,0.068426
0.048876,0.058651,0.36168,0.068426
0.048876,0.068426,0.36168,0.068426
0.048876,0.058651,0.40078,0.068426
0.039101,0.068426,0.46921,0.068426
0.039101,0.068426,0.47898,0.058651
0.039101,0.087977,0.43011,0.058651
0.058651,0.078201,0.45943,0.048876
0.039101,0.078201,0.56696,0.058651
0.029326,0.078201,0.63539,0.068426
0.039101,0.068426,0.62561,0.078201
0.039101,0.078201,0.63539,0.068426
0.029326,0.087977,0.70381,0.078201
0.029326,0.078201,0.72336,0.097752
0.01955,0.078201,0.81134,0.10753
0.029326,0.078201,0.71359,0.12708
0.01955,0.068426,0.65494,0.13685
0.029326,0.087977,0.57674,0.12708
0.029326,0.078201,0.50831,0.10753
0.01955,0.078201,0.43988,0.13685
0.029326,0.087977,0.39101,0.14663
0.029326,0.087977,0.32258,0.13685
0.029326,0.097752,0.31281,0.13685
0.029326,0.1173,0.36168,0.16618
0.029326,0.10753,0.32258,0.16618
0.048876,0.10753,0.29326,0.1564
0.039101,0.097752,0.26393,0.16618
0.048876,0.097752,0.2346,0.18573
0.058651,0.10753,0.22483,0.17595
0.058651,0.1173,0.1955,0.16618
0.058651,0.1173,0.18573,0.17595
0.068426,0.10753,0.18573,0.1955
0.068426,0.1173,0.18573,0.18573
0.068426,0.10753,0.1564,0.16618
0.087977,0.1173,0.14663,0.16618
0.097752,0.10753,0.14663,0.1564
0.097752,0.1173,0.12708,0.16618
0.087977,0.10753,0.1173,0.16618
0.097752,0.1173,0.1173,0.16618
0.087977,0.1173,0.1173,0.16618
0.10753,0.13685,0.1173,0.1564
0.1173,0.1564,0.1173,0.14663
0.12708,0.14663,0.1564,0.13685
0.1173,0.16618,0.13685,0.12708
0.14663,0.21505,0.1173,0.1173
0.12708,0.20528,0.13685,0.10753
0.12708,0.18573,0.1173,0.10753
0.12708,0.18573,0.10753,0.087977
0.16618,0.20528,0.097752,0.078201
0.18573,0.2346,0.10753,0.078201
0.17595,0.26393,0.10753,0.087977
0.16618,0.24438,0.1173,0.097752
0.14663,0.26393,0.10753,0.13685
0.13685,0.32258,0.097752,0.1564
0.14663,0.33236,0.10753,0.16618
0.1173,0.32258,0.097752,0.16618
0.10753,0.32258,0.087977,0.22483
0.097752,0.31281,0.087977,0.21505
0.10753,0.30303,0.10753,0.18573
0.097752,0.30303,0.097752,0.14663
0.1173,0.31281,0.1173,0.12708
0.12708,0.29326,0.097752,0.10753
0.1173,0.29326,0.087977,0.097752
0.13685,0.31281,0.087977,0.097752
0.12708,0.30303,0.078201,0.087977
0.12708,0.2737,0.078201,0.078201
0.1173,0.31281,0.097752,0.068426
0.12708,0.26393,0.078201,0.068426
0.13685,0.26393,0.078201,0.068426
0.1173,0.2346,0.068426,0.058651
0.10753,0.21505,0.068426,0.048876
0.1173,0.1955,0.058651,0.048876
0.097752,0.18573,0.068426,0.039101
0.10753,0.17595,0.068426,0.039101
0.087977,0.16618,0.058651,0.039101
0.078201,0.14663,0.058651,0.029326
0.078201,0.1564,0.068426,0.029326
0.078201,0.14663,0.068426,0.029326
0.087977,0.12708,0.068426,0.01955
0.087977,0.1173,0.058651,0.01955
0.078201,0.097752,0.068426,0.039101
0.068426,0.097752,0.068426,0.039101
0.068426,0.097752,0.068426,0.039101
0.058651,0.097752,0.087977,0.039101
0.058651,0.10753,0.087977,0.039101
0.048876,0.097752,0.068426,0.029326
0.048876,0.087977,0.058651,0.029326
0.058651,0.078201,0.058651,0.029326
0.048876,0.078201,0.058651,0.029326
0.048876,0.078201,0.068426,0.029326
0.058651,0.068426,0.068426,0.01955
0.068426,0.078201,0.068426,0.039101
0.068426,0.068426,0.068426,0.029326
0.058651,0.068426,0.078201,0.029326
0.058651,0.058651,0.068426,0.029326
0.048876,0.068426,0.068426,0.01955
0.048876,0.068426,0.078201,0.01955
0.048876,0.058651,0.078201,0.01955
0.048876,0.058651,0.078201,0.0097752
0.039101,0.068426,0.087977,0.0097752
0.048876,0.058651,0.087977,0.01955
0.048876,0.058651,0.087977,0.01955
0.039101,0.058651,0.097752,0.01955
0.039101,0.058651,0.097752,0.0097752
0.048876,0.048876,0.097752,0.0097752
0.058651,0.048876,0.087977,0.0097752
0.048876,0.039101,0.097752,0.0097752
0.048876,0.039101,0.10753,0.0097752
0.048876,0.048876,0.10753,0.0097752
0.039101,0.039101,0.13685,0.0097752
0.048876,0.039101,0.16618,0.0097752
0.048876,0.039101,0.14663,0.0097752
0.048876,0.039101,0.17595,0
0.039101,0.029326,0.16618,0.0097752
0.039101,0.039101,0.16618,0.0097752
0.048876,0.039101,0.1564,0.0097752
0.039101,0.029326,0.14663,0
0.048876,0.029326,0.17595,0.0097752
0.048876,0.029326,0.18573,0.0097752
0.048876,0.029326,0.20528,0.01955
0.039101,0.039101,0.20528,0.0097752
0.029326,0.039101,0.20528,0.029326
0.029326,0.039101,0.22483,0.029326
0.029326,0.039101,0.20528,0.029326
0.039101,0.029326,0.18573,0.029326
0.039101,0.029326,0.22483,0.029326
0.039101,0.029326,0.25415,0.01955
0.029326,0.029326,0.24438,0.01955
0.029326,0.029326,0.2737,0.0097752
0.029326,0.029326,0.25415,0.0097752
0.01955,0.01955,0.29326,0.0097752
0.01955,0.029326,0.36168,0.0097752
0.01955,0.01955,0.34213,0.0097752
0.029326,0.029326,0.37146,0.0097752
0.029326,0.029326,0.42033,0.01955
0.039101,0.029326,0.39101,0.01955
0.039101,0.01955,0.40078,0.01955
0.029326,0.029326,0.45943,0.01955
0.029326,0.029326,0.54741,0.01955
0.01955,0.039101,0.54741,0.01955
0.01955,0.029326,0.55718,0.029326
0.01955,0.029326,0.60606,0.029326
0.029326,0.029326,0.65494,0.029326
0.039101,0.029326,0.65494,0.029326
0.039101,0.039101,0.61584,0.039101
0.029326,0.058651,0.57674,0.039101
0.01955,0.048876,0.52786,0.039101
0.0097752,0.048876,0.52786,0.048876
0.0097752,0.039101,0.44966,0.048876
0.0097752,0.039101,0.43988,0.039101
0.0097752,0.048876,0.40078,0.039101
0.0097752,0.048876,0.39101,0.048876
0,0.039101,0.31281,0.058651
0,0.039101,0.39101,0.068426
0,0.039101,0.47898,0.068426
0,0.039101,0.44966,0.078201
0,0.048876,0.42033,0.087977
0,0.048876,0.37146,0.087977
0,0.048876,0.36168,0.078201
0.0097752,0.048876,0.34213,0.078201
0.0097752,0.048876,0.34213,0.087977
0.0097752,0.048876,0.28348,0.097752
0.0097752,0.039101,0.25415,0.097752
0.01955,0.039101,0.28348,0.097752
0.029326,0.048876,0.25415,0.10753
0.029326,0.058651,0.29326,0.10753
0.029326,0.048876,0.24438,0.12708
0.048876,0.068426,0.21505,0.13685
0.058651,0.068426,0.22483,0.14663
0.068426,0.068426,0.25415,0.14663
0.058651,0.068426,0.21505,0.14663
0.068426,0.068426,0.1955,0.13685
0.068426,0.078201,0.18573,0.16618
0.078201,0.078201,0.1955,0.1955
0.078201,0.078201,0.2737,0.16618
0.078201,0.078201,0.2346,0.17595
0.068426,0.078201,0.20528,0.16618
0.078201,0.078201,0.1955,0.16618
0.068426,0.078201,0.20528,0.17595
0.078201,0.078201,0.20528,0.1955
0.087977,0.078201,0.18573,0.18573
0.087977,0.078201,0.18573,0.1564
0.097752,0.097752,0.18573,0.17595
0.087977,0.097752,0.17595,0.16618
0.097752,0.097752,0.18573,0.1564
0.097752,0.087977,0.16618,0.14663
0.087977,0.1173,0.16618,0.13685
0.097752,0.13685,0.1955,0.13685
0.10753,0.13685,0.17595,0.14663
0.10753,0.13685,0.14663,0.12708
0.13685,0.12708,0.16618,0.12708
0.14663,0.13685,0.14663,0.1173
0.14663,0.14663,0.14663,0.10753
0.1564,0.21505,0.14663,0.097752
0.1564,0.22483,0.16618,0.10753
0.1564,0.24438,0.16618,0.087977
0.1564,0.29326,0.16618,0.087977
0.14663,0.29326,0.14663,0.078201
0.1564,0.31281,0.14663,0.078201
0.17595,0.31281,0.13685,0.068426
0.1564,0.30303,0.12708,0.068426
0.14663,0.31281,0.1173,0.058651
0.13685,0.32258,0.10753,0.068426
0.13685,0.35191,0.097752,0.058651
0.12708,0.35191,0.097752,0.048876
0.1173,0.32258,0.097752,0.048876
0.12708,0.34213,0.087977,0.048876
0.12708,0.40078,0.097752,0.039101
0.12708,0.40078,0.097752,0.048876
0.1173,0.37146,0.087977,0.039101
0.1173,0.36168,0.1173,0.039101
0.1173,0.32258,0.097752,0.039101
0.10753,0.29326,0.087977,0.048876
0.097752,0.25415,0.078201,0.039101
0.097752,0.22483,0.078201,0.029326
0.087977,0.20528,0.078201,0.029326
0.078201,0.18573,0.078201,0.039101
0.078201,0.1564,0.068426,0.039101
0.087977,0.1564,0.068426,0.039101
0.087977,0.14663,0.078201,0.039101
0.068426,0.13685,0.058651,0.039101
0.068426,0.13685,0.058651,0.039101
0.068426,0.13685,0.058651,0.039101
0.068426,0.12708,0.078201,0.039101
0.097752,0.12708,0.068426,0.039101
0.087977,0.12708,0.068426,0.039101
0.087977,0.10753,0.068426,0.029326
0.078201,0.12708,0.068426,0.039101
0.068426,0.12708,0.068426,0.029326
0.078201,0.10753,0.068426,0.029326
0.068426,0.12708,0.058651,0.01955
0.058651,0.12708,0.058651,0.01955
0.058651,0.14663,0.058651,0.01955
0.068426,0.1564,0.058651,0.01955
0.058651,0.14663,0.058651,0.01955
0.078201,0.14663,0.058651,0.01955
0.10753,0.14663,0.058651,0.01955
0.12708,0.14663,0.078201,0.01955
0.1173,0.12708,0.068426,0.0097752
0.097752,0.1173,0.058651,0.0097752
0.087977,0.12708,0.068426,0.01955
0.087977,0.10753,0.068426,0.0097752
0.068426,0.10753,0.068426,0.0097752
0.087977,0.10753,0.068426,0.0097752
0.087977,0.097752,0.068426,0.01955
0.097752,0.097752,0.058651,0.0097752
0.087977,0.097752,0.068426,0.01955
0.078201,0.097752,0.068426,0.0097752
0.068426,0.097752,0.068426,0.0097752
0.058651,0.087977,0.058651,0.0097752
0.048876,0.068426,0.058651,0.0097752
0.058651,0.068426,0.058651,0.0097752
0.048876,0.058651,0.068426,0.0097752
0.048876,0.048876,0.068426,0.01955
0.039101,0.058651,0.068426,0.01955
0.039101,0.058651,0.078201,0.01955
0.029326,0.068426,0.078201,0.01955
0.039101,0.068426,0.078201,0.0097752
0.029326,0.068426,0.078201,0.0097752
0.029326,0.058651,0.10753,0.01955
0.01955,0.058651,0.097752,0.0097752
0.01955,0.068426,0.097752,0.01955
0.01955,0.058651,0.087977,0.01955
0.01955,0.058651,0.1173,0.029326
0.01955,0.048876,0.10753,0.029326
0.01955,0.058651,0.10753,0.01955
0.029326,0.058651,0.1173,0.029326
0.029326,0.058651,0.1173,0.029326
0.01955,0.058651,0.12708,0.029326
0.01955,0.058651,0.14663,0.029326
0.01955,0.048876,0.1564,0.01955
0.0097752,0.058651,0.14663,0.01955
0.0097752,0.058651,0.16618,0.01955
0.0097752,0.048876,0.20528,0.029326
0.0097752,0.039101,0.21505,0.048876
0.0097752,0.039101,0.24438,0.058651
0.0097752,0.039101,0.2346,0.058651
0.0097752,0.048876,0.20528,0.039101
0.0097752,0.048876,0.22483,0.048876
0.0097752,0.039101,0.2346,0.048876
0.0097752,0.039101,0.29326,0.048876
0.0097752,0.048876,0.2737,0.058651
0.0097752,0.039101,0.29326,0.048876
0.097752,0.068426,0.087977,0.31281
0.94819,1.5347,0.63539,0.30303
0.74291,1.2023,0.50831,0.28348
0.58651,0.94819,0.41056,0.2737
0.46921,0.75269,0.34213,0.32258
0.38123,0.59629,0.28348,0.2737
0.30303,0.48876,0.2346,0.28348
0.25415,0.39101,0.1955,0.2737
0.1955,0.32258,0.17595,0.25415
0.17595,0.2737,0.18573,0.22483
0.14663,0.2346,0.17595,0.22483
0.1173,0.1955,0.1564,0.20528
0.10753,0.16618,0.12708,0.18573
0.097752,0.14663,0.10753,0.17595
0.087977,0.13685,0.10753,0.1564
0.068426,0.12708,0.087977,0.1564
0.058651,0.10753,0.078201,0.14663
0.048876,0.097752,0.068426,0.12708
0.039101,0.097752,0.078201,0.1173
0.039101,0.087977,0.078201,0.12708
0.039101,0.078201,0.078201,0.1173
0.029326,0.078201,0.078201,0.087977
0.029326,0.078201,0.068426,0.078201
0.029326,0.068426,0.078201,0.078201
0.029326,0.068426,0.078201,0.068426
0.029326,0.068426,0.078201,0.068426
0.01955,0.058651,0.097752,0.068426
0.029326,0.087977,0.097752,0.068426
0.01955,0.087977,0.097752,0.068426
0.01955,0.087977,0.12708,0.058651
0.01955,0.078201,0.1173,0.048876
0.029326,0.087977,0.1173,0.039101
0.01955,0.068426,0.12708,0.039101
0.01955,0.078201,0.1173,0.039101
0.01955,0.078201,0.1173,0.039101
0.01955,0.1173,0.12708,0.029326
0.01955,0.12708,0.12708,0.029326
0.0097752,0.13685,0.14663,0.029326
0.0097752,0.12708,0.14663,0.029326
0.01955,0.1173,0.12708,0.039101
0.029326,0.10753,0.1564,0.029326
0.048876,0.13685,0.14663,0.029326
0.058651,0.1173,0.13685,0.029326
0.039101,0.10753,0.12708,0.029326
0.058651,0.097752,0.13685,0.039101
0.078201,0.097752,0.13685,0.029326
0.1173,0.097752,0.13685,0.01955
0.1564,0.087977,0.13685,0.01955
0.17595,0.078201,0.12708,0.01955
0.14663,0.078201,0.12708,0.029326
0.1564,0.068426,0.14663,0.029326
0.1955,0.058651,0.16618,0.039101
0.16618,0.058651,0.17595,0.029326
0.16618,0.068426,0.22483,0.039101
0.1564,0.058651,0.20528,0.048876
0.14663,0.068426,0.20528,0.039101
0.12708,0.068426,0.21505,0.029326
0.1173,0.068426,0.18573,0.029326
0.1173,0.078201,0.21505,0.039101
0.10753,0.078201,0.22483,0.048876
0.078201,0.068426,0.25415,0.058651
0.068426,0.058651,0.2346,0.058651
0.058651,0.058651,0.22483,0.058651
0.039101,0.058651,0.2737,0.048876
0.039101,0.078201,0.30303,0.039101
0.039101,0.078201,0.33236,0.029326
0.029326,0.068426,0.2737,0.01955
0.01955,0.068426,0.26393,0.01955
0.01955,0.078201,0.25415,0.0097752
0.01955,0.078201,0.30303,0.0097752
0.01955,0.087977,0.29326,0.0097752
0.0097752,0.087977,0.29326,0.0097752
0,0.087977,0.32258,0.029326
0,0.087977,0.36168,0.029326
0.0097752,0.078201,0.43011,0.048876
0.0097752,0.097752,0.51808,0.048876
0.0097752,0.097752,0.53763,0.048876
0.0097752,0.097752,0.60606,0.039101
0.0097752,0.078201,0.63539,0.039101
0.01955,0.097752,0.61584,0.029326
0.039101,0.097752,0.52786,0.029326
0.048876,0.087977,0.50831,0.01955
0.039101,0.10753,0.49853,0.0097752
0.039101,0.097752,0.44966,0.029326
0.029326,0.10753,0.51808,0.029326
0.039101,0.10753,0.48876,0.029326
0.039101,0.10753,0.42033,0.039101
0.029326,0.1173,0.41056,0.039101
0.039101,0.1173,0.40078,0.039101
0.029326,0.12708,0.34213,0.029326
0.039101,0.1173,0.32258,0.029326
0.068426,0.12708,0.2737,0.048876
0.10753,0.14663,0.26393,0.068426
0.12708,0.13685,0.24438,0.068426
0.10753,0.13685,0.25415,0.068426
0.1173,0.1564,0.21505,0.058651
0.1173,0.14663,0.1955,0.048876
0.1173,0.1564,0.20528,0.048876
0.10753,0.16618,0.18573,0.058651
0.097752,0.17595,0.17595,0.058651
0.087977,0.20528,0.17595,0.058651
0.068426,0.24438,0.1564,0.058651
0.078201,0.30303,0.16618,0.058651
0.078201,0.30303,0.14663,0.058651
0.078201,0.28348,0.16618,0.048876
0.087977,0.36168,0.16618,0.058651
0.078201,0.37146,0.16618,0.058651
0.068426,0.33236,0.16618,0.068426
0.078201,0.37146,0.14663,0.078201
0.078201,0.35191,0.14663,0.078201
0.068426,0.34213,0.13685,0.097752
0.078201,0.33236,0.1173,0.10753
0.078201,0.38123,0.1173,0.097752
0.078201,0.39101,0.10753,0.10753
0.097752,0.38123,0.097752,0.10753
0.12708,0.34213,0.087977,0.12708
0.1564,0.36168,0.087977,0.12708
0.14663,0.45943,0.087977,0.12708
0.13685,0.49853,0.087977,0.14663
0.14663,0.53763,0.097752,0.14663
0.13685,0.60606,0.087977,0.12708
0.14663,0.55718,0.10753,0.13685
0.1564,0.63539,0.097752,0.13685
0.14663,0.69404,0.078201,0.13685
0.12708,0.70381,0.087977,0.14663
0.12708,0.72336,0.097752,0.1564
0.12708,0.62561,0.078201,0.18573
0.1173,0.52786,0.078201,0.18573
0.12708,0.51808,0.087977,0.18573
0.13685,0.47898,0.078201,0.22483
0.1173,0.43011,0.078201,0.2737
0.1173,0.41056,0.078201,0.2737
0.097752,0.40078,0.078201,0.25415
0.087977,0.36168,0.087977,0.24438
0.078201,0.34213,0.078201,0.26393
0.068426,0.32258,0.068426,0.2346
0.068426,0.2737,0.068426,0.22483
0.068426,0.2737,0.068426,0.22483
0.058651,0.24438,0.068426,0.22483
0.058651,0.22483,0.068426,0.22483
0.048876,0.20528,0.078201,0.20528
0.048876,0.1955,0.068426,0.1955
0.048876,0.1955,0.058651,0.17595
0.048876,0.1955,0.068426,0.16618
0.058651,0.17595,0.058651,0.14663
0.048876,0.16618,0.058651,0.12708
0.048876,0.1564,0.058651,0.13685
0.039101,0.13685,0.058651,0.14663
0.039101,0.13685,0.078201,0.1564
0.029326,0.1173,0.068426,0.13685
0.029326,0.12708,0.068426,0.1173
0.029326,0.1173,0.068426,0.10753
0.029326,0.10753,0.068426,0.097752
0.039101,0.097752,0.068426,0.097752
0.039101,0.097752,0.068426,0.087977
0.039101,0.10753,0.058651,0.068426
0.039101,0.10753,0.058651,0.078201
0.039101,0.087977,0.048876,0.068426
0.029326,0.097752,0.068426,0.058651
0.029326,0.087977,0.058651,0.058651
0.029326,0.078201,0.058651,0.048876
0.029326,0.097752,0.087977,0.048876
0.039101,0.087977,0.087977,0.039101
0.029326,0.097752,0.078201,0.039101
0.029326,0.087977,0.087977,0.048876
0.029326,0.10753,0.078201,0.058651
0.029326,0.097752,0.068426,0.048876
0.029326,0.097752,0.058651,0.039101
0.029326,0.10753,0.068426,0.048876
0.01955,0.097752,0.068426,0.048876
0.029326,0.087977,0.068426,0.048876
0.029326,0.087977,0.068426,0.048876
0.029326,0.078201,0.068426,0.048876
0.01955,0.078201,0.087977,0.048876
0.01955,0.078201,0.078201,0.048876
0.01955,0.087977,0.078201,0.048876
0.01955,0.078201,0.078201,0.048876
0.029326,0.078201,0.097752,0.048876
0.029326,0.068426,0.097752,0.048876
0.039101,0.068426,0.10753,0.048876
0.048876,0.068426,0.097752,0.048876
0.048876,0.058651,0.097752,0.048876
0.039101,0.068426,0.1173,0.048876
0.058651,0.068426,0.1173,0.039101
0.097752,0.068426,0.12708,0.039101
0.12708,0.068426,0.12708,0.039101
0.13685,0.058651,0.14663,0.048876
0.12708,0.068426,0.13685,0.039101
0.10753,0.058651,0.12708,0.029326
0.13685,0.058651,0.1173,0.029326
0.13685,0.068426,0.12708,0.029326
0.10753,0.058651,0.12708,0.039101
0.087977,0.068426,0.13685,0.039101
0.078201,0.058651,0.13685,0.039101
0.068426,0.058651,0.12708,0.048876
0.058651,0.078201,0.1564,0.039101
0.048876,0.068426,0.1564,0.029326
0.039101,0.068426,0.17595,0.029326
0.048876,0.078201,0.17595,0.029326
0.039101,0.087977,0.17595,0.029326
0.029326,0.10753,0.16618,0.029326
0.029326,0.087977,0.14663,0.01955
0.039101,0.078201,0.14663,0.01955
0.039101,0.078201,0.13685,0.01955
0.039101,0.078201,0.14663,0.01955
0.039101,0.078201,0.14663,0.029326
0.029326,0.068426,0.16618,0.039101
0.01955,0.068426,0.14663,0.029326
0.01955,0.068426,0.20528,0.029326
0.0097752,0.058651,0.20528,0.039101
0.0097752,0.068426,0.21505,0.048876
0.0097752,0.068426,0.20528,0.078201
0.0097752,0.058651,0.22483,0.078201
0.0097752,0.048876,0.22483,0.068426
0.0097752,0.058651,0.2346,0.068426
0.0097752,0.058651,0.24438,0.058651
0.0097752,0.048876,0.29326,0.039101
0.01955,0.058651,0.28348,0.039101
0.01955,0.048876,0.2737,0.039101
0.01955,0.048876,0.24438,0.039101
0.01955,0.058651,0.29326,0.039101
0.029326,0.058651,0.30303,0.039101
0.039101,0.058651,0.33236,0.048876
0.048876,0.058651,0.41056,0.058651
0.058651,0.058651,0.37146,0.058651
0.068426,0.058651,0.33236,0.058651
0.078201,0.058651,0.32258,0.078201
0.087977,0.058651,0.31281,0.078201
0.087977,0.068426,0.28348,0.068426
0.078201,0.068426,0.28348,0.058651
0.1564,0.068426,0.28348,0.048876
0.1955,0.087977,0.28348,0.039101
0.16618,0.097752,0.29326,0.039101
0.14663,0.097752,0.2737,0.029326
0.13685,0.10753,0.2737,0.029326
0.10753,0.1173,0.25415,0.029326
0.10753,0.13685,0.26393,0.01955
0.087977,0.14663,0.2346,0.029326
0.078201,0.12708,0.20528,0.029326
0.068426,0.13685,0.18573,0.029326
0.068426,0.13685,0.17595,0.039101
0.078201,0.13685,0.18573,0.048876
0.078201,0.13685,0.17595,0.048876
0.087977,0.14663,0.16618,0.048876
0.087977,0.14663,0.17595,0.058651
0.087977,0.13685,0.17595,0.058651
0.097752,0.14663,0.1564,0.058651
0.097752,0.14663,0.1955,0.058651
0.087977,0.13685,0.1955,0.068426
0.087977,0.14663,0.17595,0.058651
0.087977,0.14663,0.17595,0.058651
0.087977,0.14663,0.14663,0.048876
0.10753,0.14663,0.14663,0.058651
0.10753,0.18573,0.14663,0.058651
0.097752,0.20528,0.16618,0.078201
0.097752,0.21505,0.14663,0.087977
0.10753,0.2346,0.14663,0.078201
0.1173,0.24438,0.14663,0.1173
0.13685,0.24438,0.17595,0.1564
0.12708,0.24438,0.1955,0.18573
0.13685,0.28348,0.17595,0.17595
0.1564,0.29326,0.17595,0.1564
0.14663,0.2737,0.16618,0.14663
0.18573,0.26393,0.1564,0.1564
0.18573,0.2737,0.14663,0.1955
0.17595,0.29326,0.1564,0.1955
0.14663,0.2737,0.14663,0.20528
0.14663,0.26393,0.12708,0.2346
0.1173,0.31281,0.10753,0.26393
0.10753,0.32258,0.10753,0.24438
0.10753,0.29326,0.10753,0.2346
0.097752,0.26393,0.087977,0.24438
0.087977,0.2737,0.10753,0.2346
0.097752,0.31281,0.097752,0.2346
0.097752,0.34213,0.097752,0.22483
0.078201,0.32258,0.1173,0.22483
0.068426,0.29326,0.12708,0.2346
0.078201,0.25415,0.12708,0.20528
0.068426,0.25415,0.12708,0.1955
0.068426,0.21505,0.12708,0.1955
0.068426,0.20528,0.12708,0.17595
0.058651,0.18573,0.1173,0.1564
0.048876,0.17595,0.1173,0.1564
0.048876,0.1955,0.10753,0.14663
0.048876,0.18573,0.10753,0.14663
0.039101,0.18573,0.097752,0.13685
0.039101,0.1955,0.097752,0.13685
0.039101,0.1955,0.097752,0.12708
0.039101,0.17595,0.12708,0.1173
0.039101,0.18573,0.10753,0.10753
0.039101,0.16618,0.097752,0.087977
0.039101,0.14663,0.087977,0.087977
0.039101,0.12708,0.097752,0.087977
0.039101,0.14663,0.097752,0.078201
0.039101,0.13685,0.087977,0.068426
0.029326,0.13685,0.097752,0.087977
0.029326,0.16618,0.087977,0.087977
0.029326,0.20528,0.087977,0.078201
0.029326,0.20528,0.087977,0.087977
0.029326,0.18573,0.078201,0.068426
0.029326,0.1564,0.097752,0.068426
0.029326,0.13685,0.087977,0.068426
0.029326,0.12708,0.078201,0.068426
0.029326,0.10753,0.078201,0.068426
0.01955,0.1173,0.087977,0.058651
0.01955,0.10753,0.087977,0.058651
0.01955,0.097752,0.078201,0.068426
0.029326,0.1173,0.078201,0.078201
0.029326,0.12708,0.078201,0.078201
0.029326,0.13685,0.078201,0.078201
0.029326,0.10753,0.078201,0.068426
0.029326,0.10753,0.078201,0.068426
0.01955,0.1173,0.087977,0.068426
0.01955,0.12708,0.087977,0.068426
0.01955,0.097752,0.087977,0.068426
0.029326,0.10753,0.078201,0.058651
0.029326,0.10753,0.078201,0.058651
0.029326,0.097752,0.078201,0.058651
0.01955,0.097752,0.078201,0.058651
0.01955,0.078201,0.078201,0.039101
0.029326,0.068426,0.087977,0.039101
0.01955,0.068426,0.078201,0.048876
0.01955,0.078201,0.10753,0.048876
0.01955,0.068426,0.1173,0.058651
0.029326,0.068426,0.097752,0.048876
0.039101,0.068426,0.1173,0.048876
0.039101,0.068426,0.1173,0.048876
0.029326,0.068426,0.12708,0.048876
0.029326,0.068426,0.14663,0.039101
0.029326,0.068426,0.1564,0.039101
0.029326,0.068426,0.17595,0.029326
0.029326,0.068426,0.1564,0.029326
0.029326,0.068426,0.16618,0.01955
0.039101,0.068426,0.16618,0.029326
0.048876,0.087977,0.14663,0.039101
0.039101,0.097752,0.14663,0.029326
0.039101,0.097752,0.14663,0.029326
0.048876,0.097752,0.13685,0.029326
0.048876,0.087977,0.1173,0.01955
0.039101,0.087977,0.1173,0.01955
0.029326,0.087977,0.10753,0.01955
0.029326,0.097752,0.10753,0.01955
0.039101,0.10753,0.097752,0.029326
0.048876,0.097752,0.12708,0.01955
0.058651,0.087977,0.1173,0.01955
0.068426,0.078201,0.1173,0.01955
0.078201,0.087977,0.13685,0.048876
0.087977,0.078201,0.13685,0.039101
0.068426,0.078201,0.12708,0.039101
0.058651,0.068426,0.12708,0.039101
0.039101,0.068426,0.1173,0.039101
0.029326,0.058651,0.1564,0.048876
0.029326,0.058651,0.1564,0.048876
0.01955,0.058651,0.14663,0.029326
0.01955,0.058651,0.1564,0.029326
0.048876,0.058651,0.1564,0.039101
0.039101,0.058651,0.14663,0.039101
0.068426,0.068426,0.17595,0.039101
0.029326,0.058651,0.17595,0.048876
0.029326,0.058651,0.20528,0.058651
0.01955,0.058651,0.1955,0.048876
0.0097752,0.068426,0.20528,0.039101
0.0097752,0.068426,0.1955,0.048876
0.0097752,0.058651,0.21505,0.048876
0.0097752,0.068426,0.21505,0.058651
0.0097752,0.068426,0.2346,0.048876
0.0097752,0.068426,0.2346,0.039101
0.0097752,0.068426,0.2346,0.039101
0.0097752,0.068426,0.2346,0.029326
0.0097752,0.068426,0.2737,0.039101
0.0097752,0.087977,0.29326,0.048876
0.01955,0.1173,0.26393,0.048876
0.01955,0.1173,0.2737,0.058651
0.01955,0.1173,0.28348,0.039101
0.01955,0.10753,0.25415,0.039101
0.0097752,0.10753,0.25415,0.039101
0.0097752,0.097752,0.24438,0.029326
0.0097752,0.097752,0.2346,0.029326
0.0097752,0.097752,0.22483,0.029326
0.0097752,0.097752,0.1955,0.029326
0.01955,0.097752,0.18573,0.039101
0.029326,0.10753,0.18573,0.039101
0.029326,0.1173,0.17595,0.039101
0.039101,0.12708,0.17595,0.039101
0.039101,0.12708,0.17595,0.039101
0.048876,0.13685,0.17595,0.039101
0.039101,0.13685,0.1564,0.048876
0.039101,0.14663,0.14663,0.058651
0.039101,0.21505,0.1564,0.058651
0.048876,0.2346,0.14663,0.058651
0.048876,0.26393,0.13685,0.058651
0.048876,0.30303,0.1173,0.068426
0.048876,0.39101,0.12708,0.087977
0.048876,0.51808,0.12708,0.10753
0.058651,0.51808,0.1173,0.10753
0.058651,0.49853,0.12708,0.10753
0.068426,0.50831,0.10753,0.10753
0.068426,0.51808,0.10753,0.097752
0.078201,0.54741,0.1173,0.097752
0.058651,0.68426,0.10753,0.1173
0.068426,0.66471,0.097752,0.13685
0.068426,0.67449,0.097752,0.12708
0.078201,0.72336,0.097752,0.1173
0.087977,0.74291,0.097752,0.14663
0.078201,0.74291,0.10753,0.13685
0.097752,0.65494,0.097752,0.16618
0.078201,0.63539,0.087977,0.16618
0.078201,0.66471,0.1173,0.17595
0.078201,0.60606,0.097752,0.16618
0.078201,0.57674,0.087977,0.16618
0.078201,0.58651,0.10753,0.16618
0.087977,0.56696,0.097752,0.1564
0.087977,0.51808,0.087977,0.14663
0.097752,0.51808,0.097752,0.13685
0.10753,0.42033,0.087977,0.14663
0.097752,0.38123,0.078201,0.16618
0.078201,0.36168,0.087977,0.17595
0.078201,0.32258,0.087977,0.1564
0.10753,0.30303,0.078201,0.1564
0.10753,0.28348,0.078201,0.17595
0.097752,0.25415,0.087977,0.17595
0.097752,0.26393,0.087977,0.1564
0.087977,0.25415,0.078201,0.14663
0.087977,0.2737,0.097752,0.14663
0.087977,0.25415,0.087977,0.1564
0.078201,0.21505,0.097752,0.18573
0.087977,0.21505,0.097752,0.1564
0.087977,0.20528,0.087977,0.14663
0.068426,0.1955,0.087977,0.14663
0.068426,0.17595,0.078201,0.17595
0.078201,0.16618,0.087977,0.17595
0.087977,0.14663,0.097752,0.16618
0.087977,0.14663,0.097752,0.16618
0.078201,0.14663,0.1173,0.16618
0.058651,0.13685,0.12708,0.1564
0.058651,0.1173,0.13685,0.14663
0.058651,0.10753,0.17595,0.13685
0.058651,0.10753,0.22483,0.13685
0.058651,0.1173,0.22483,0.13685
0.058651,0.13685,0.34213,0.14663
0.048876,0.13685,0.36168,0.13685
0.039101,0.16618,0.29326,0.13685
0.068426,0.1564,0.26393,0.14663
0.058651,0.13685,0.2346,0.14663
0.068426,0.14663,0.21505,0.14663
0.048876,0.13685,0.20528,0.13685
0.048876,0.12708,0.18573,0.10753
0.039101,0.1173,0.16618,0.097752
0.039101,0.1173,0.16618,0.097752
0.029326,0.13685,0.1564,0.087977
0.039101,0.10753,0.13685,0.087977
0.029326,0.1173,0.1173,0.097752
0.029326,0.1173,0.10753,0.097752
0.029326,0.10753,0.097752,0.087977
0.039101,0.097752,0.078201,0.078201
0.029326,0.087977,0.078201,0.078201
0.039101,0.097752,0.078201,0.068426
0.029326,0.087977,0.078201,0.068426
0.029326,0.087977,0.078201,0.068426
0.029326,0.087977,0.087977,0.058651
0.029326,0.087977,0.087977,0.048876
0.029326,0.087977,0.087977,0.048876
0.029326,0.087977,0.087977,0.048876
0.039101,0.078201,0.097752,0.039101
0.039101,0.078201,0.10753,0.048876
0.039101,0.078201,0.13685,0.039101
0.039101,0.078201,0.1564,0.048876
0.029326,0.078201,0.1564,0.048876
0.01955,0.078201,0.18573,0.048876
0.01955,0.078201,0.17595,0.048876
0.01955,0.078201,0.17595,0.048876
0.01955,0.078201,0.17595,0.039101
0.01955,0.097752,0.16618,0.039101
0.01955,0.097752,0.14663,0.068426
0.01955,0.078201,0.14663,0.1173
0.0097752,0.10753,0.14663,0.1564
0.01955,0.14663,0.14663,0.16618
0.0097752,0.14663,0.18573,0.1564
0.0097752,0.13685,0.20528,0.20528
0.0097752,0.16618,0.20528,0.2737
0.0097752,0.14663,0.21505,0.2737
0.0097752,0.12708,0.22483,0.21505
0.0097752,0.1173,0.1955,0.16618
0.0097752,0.1173,0.1955,0.14663
0.0097752,0.097752,0.1955,0.13685
0.0097752,0.087977,0.1955,0.12708
0.01955,0.078201,0.21505,0.1173
0.0097752,0.078201,0.20528,0.10753
0.0097752,0.078201,0.21505,0.10753
0.0097752,0.058651,0.22483,0.097752
0.0097752,0.058651,0.21505,0.078201
0.0097752,0.068426,0.20528,0.068426
0.0097752,0.068426,0.2346,0.068426
0,0.058651,0.20528,0.097752
0.0097752,0.058651,0.21505,0.12708
0,0.058651,0.22483,0.13685
0.0097752,0.058651,0.26393,0.12708
0.0097752,0.058651,0.28348,0.13685
0.0097752,0.058651,0.24438,0.16618
0,0.058651,0.2737,0.18573
0,0.058651,0.25415,0.17595
0.0097752,0.058651,0.2346,0.16618
0.0097752,0.058651,0.28348,0.14663
0.0097752,0.078201,0.32258,0.1173
0,0.068426,0.31281,0.097752
0,0.068426,0.33236,0.087977
0.0097752,0.078201,0.35191,0.087977
0.0097752,0.087977,0.34213,0.10753
0,0.097752,0.34213,0.1173
0,0.087977,0.41056,0.1173
0.0097752,0.078201,0.44966,0.10753
0.01955,0.078201,0.45943,0.10753
0.0097752,0.078201,0.41056,0.1173
0.0097752,0.087977,0.43011,0.1564
0.01955,0.078201,0.40078,0.16618
0.029326,0.078201,0.42033,0.17595
0.029326,0.068426,0.38123,0.1564
0.029326,0.078201,0.38123,0.13685
0.029326,0.087977,0.38123,0.1173
0.039101,0.087977,0.34213,0.1173
0.029326,0.087977,0.29326,0.1173
0.039101,0.087977,0.28348,0.10753
0.039101,0.097752,0.26393,0.097752
0.029326,0.097752,0.25415,0.10753
0.048876,0.097752,0.22483,0.10753
0.058651,0.097752,0.1955,0.1173
0.058651,0.087977,0.22483,0.10753
0.058651,0.087977,0.20528,0.1173
0.058651,0.097752,0.18573,0.1173
