1.573802567,2.854349899,0.957966709,1.368523955,0.928641224,2.404692173,0.273704791,0.635386086,0.068426199,0.205278587,1.28054738,0.645161247,0.087976542,0.312805462,1.036168098,0.615835762,0.156402731,0.097751703,0.273704791,0.703812313
2.218963861,2.717497587,0.791788864,1.153470159,0.772238493,2.003910065,1.348973632,1.192570925,0.068426199,1.114369512,3.030303001,2.658846617,2.492668629,2.688172102,1.89638319,1.485826015,1.10459435,1.04594326,0.371456504,1.173020482
2.521994114,2.316715479,0.654936409,1.006842613,0.645161247,1.642228699,1.847507381,1.212121248,0.078201365,0.899315739,2.60997057,2.170088053,1.955034256,2.199413538,1.79863143,1.28054738,0.918866062,0.85043993,0.38123167,0.98729229
2.649071455,2.121212006,0.547409582,0.840664673,0.557184744,1.397849445,2.082111359,1.182795639,0.068426199,0.742913008,2.336265802,1.876832867,1.544476986,1.788856268,1.603128052,1.212121248,0.752688169,0.694037151,0.38123167,0.821114349
2.512218952,1.847507381,0.449657869,0.733137846,0.478983355,1.192570925,2.189638376,1.241446733,0.068426199,0.6060606,1.945259094,1.622678375,1.22189641,1.436950111,1.446725368,1.10459435,0.615835762,0.557184744,0.38123167,0.713587475
2.062561035,1.700879812,0.391006832,0.645161247,0.410557175,1.006842613,2.09188652,1.124144673,0.068426199,0.498533726,1.612903214,1.524926662,0.967741871,1.251221895,1.231671572,0.967741871,0.527859211,0.469208193,0.361681342,0.645161247
1.710654974,1.554252148,0.342130995,0.547409582,0.361681342,0.85043993,1.739980459,1.036168098,0.078201365,0.420332336,1.33919847,1.534701824,0.772238493,1.114369512,1.202346087,0.9090909,0.439882708,0.400782013,0.322580624,0.566959906
1.42717495,1.466275692,0.3030303,0.518084049,0.312805462,0.713587475,1.436950111,1.016617775,0.068426199,0.361681342,1.10459435,1.466275692,0.625610924,1.036168098,1.055718422,0.840664673,0.361681342,0.351906157,0.322580624,0.488758564
1.182795639,1.476050854,0.263929605,0.430107546,0.273704791,0.615835762,1.192570925,1.124144673,0.068426199,0.312805462,0.948191547,1.348973632,0.508308887,0.948191547,1.10459435,0.782013655,0.322580624,0.3030303,0.342130995,0.410557175
0.977517128,1.42717495,0.234604096,0.400782013,0.234604096,0.527859211,0.997067451,1.22189641,0.068426199,0.273704791,0.801564026,1.192570925,0.420332336,0.928641224,1.094819183,0.801564026,0.283479958,0.254154444,0.312805462,0.38123167
0.811339188,1.33919847,0.215053773,0.430107546,0.224828935,0.459433031,0.869990253,1.397849445,0.078201365,0.234604096,0.654936409,1.241446733,0.342130995,0.967741871,0.98729229,0.752688169,0.254154444,0.244379282,0.283479958,0.322580624
0.664711666,1.231671572,0.205278587,0.420332336,0.195503416,0.459433031,0.733137846,1.358748794,0.068426199,0.205278587,0.557184744,1.202346087,0.283479958,1.036168098,1.026392937,0.723362684,0.234604096,0.215053773,0.283479958,0.312805462
0.557184744,1.065493703,0.175953078,0.439882708,0.166177917,0.508308887,0.625610924,1.417399788,0.068426199,0.166177917,0.459433031,1.251221895,0.234604096,1.251221895,1.133919835,0.733137846,0.224828935,0.224828935,0.273704791,0.283479958
0.469208193,0.938416386,0.175953078,0.400782013,0.166177917,0.430107546,0.53763442,1.534701824,0.068426199,0.14662756,0.410557175,1.16324532,0.185728254,1.348973632,1.33919847,0.782013655,0.215053773,0.215053773,0.293255119,0.263929605
0.391006832,0.801564026,0.166177917,0.400782013,0.156402731,0.498533726,0.488758564,1.485826015,0.068426199,0.127077222,0.351906157,1.036168098,0.156402731,1.16324532,1.28054738,0.840664673,0.195503416,0.224828935,0.3030303,0.244379282
0.322580624,0.694037151,0.175953078,0.38123167,0.156402731,0.459433031,0.420332336,1.329423308,0.068426199,0.117302048,0.293255119,1.036168098,0.136852396,1.016617775,1.388074284,0.918866062,0.195503416,0.215053773,0.293255119,0.224828935
0.283479958,0.625610924,0.175953078,0.342130995,0.136852396,0.400782013,0.361681342,1.407624626,0.068426199,0.117302048,0.254154444,1.231671572,0.117302048,1.026392937,1.59335289,0.948191547,0.185728254,0.195503416,0.273704791,0.244379282
0.254154444,0.547409582,0.166177917,0.361681342,0.127077222,0.351906157,0.322580624,1.348973632,0.068426199,0.117302048,0.215053773,1.173020482,0.107526886,1.036168098,1.65200386,0.967741871,0.175953078,0.234604096,0.263929605,0.273704791
0.224828935,0.576735067,0.166177917,0.351906157,0.117302048,0.322580624,0.283479958,1.300097704,0.078201365,0.107526886,0.185728254,1.192570925,0.107526886,1.153470159,1.681329346,1.085044022,0.166177917,0.215053773,0.263929605,0.273704791
0.205278587,0.518084049,0.185728254,0.351906157,0.107526886,0.263929605,0.254154444,1.231671572,0.078201365,0.097751703,0.166177917,1.436950111,0.107526886,1.388074284,1.759530783,1.124144673,0.166177917,0.224828935,0.234604096,0.263929605
0.185728254,0.53763442,0.175953078,0.342130995,0.097751703,0.244379282,0.234604096,1.202346087,0.078201365,0.087976542,0.175953078,1.300097704,0.107526886,1.270772219,1.583577728,1.124144673,0.166177917,0.215053773,0.234604096,0.244379282
0.166177917,0.586510229,0.195503416,0.312805462,0.097751703,0.234604096,0.224828935,1.300097704,0.087976542,0.087976542,0.166177917,1.202346087,0.107526886,1.358748794,1.466275692,1.04594326,0.156402731,0.195503416,0.254154444,0.254154444
0.14662756,0.566959906,0.224828935,0.293255119,0.087976542,0.234604096,0.195503416,1.397849445,0.087976542,0.097751703,0.156402731,1.192570925,0.097751703,1.22189641,1.45650053,1.04594326,0.14662756,0.175953078,0.293255119,0.244379282
0.127077222,0.508308887,0.215053773,0.283479958,0.078201365,0.205278587,0.185728254,1.45650053,0.078201365,0.097751703,0.185728254,1.16324532,0.097751703,1.417399788,1.348973632,0.997067451,0.156402731,0.166177917,0.273704791,0.234604096
0.127077222,0.488758564,0.244379282,0.3030303,0.078201365,0.175953078,0.175953078,1.505376339,0.078201365,0.087976542,0.224828935,1.28054738,0.117302048,1.319648147,1.368523955,1.10459435,0.156402731,0.175953078,0.263929605,0.234604096
0.127077222,0.439882708,0.254154444,0.351906157,0.097751703,0.166177917,0.175953078,1.739980459,0.068426199,0.078201365,0.263929605,1.241446733,0.107526886,1.583577728,1.358748794,1.182795639,0.14662756,0.224828935,0.244379282,0.263929605
0.117302048,0.430107546,0.283479958,0.439882708,0.097751703,0.14662756,0.175953078,2.023460388,0.068426199,0.078201365,0.254154444,1.075268865,0.117302048,1.466275692,1.300097704,1.22189641,0.14662756,0.215053773,0.263929605,0.283479958
0.117302048,0.38123167,0.332355833,0.420332336,0.087976542,0.127077222,0.156402731,2.013685226,0.068426199,0.068426199,0.273704791,0.957966709,0.117302048,1.388074284,1.231671572,1.270772219,0.14662756,0.205278587,0.254154444,0.263929605
0.117302048,0.351906157,0.342130995,0.410557175,0.097751703,0.127077222,0.14662756,2.121212006,0.068426199,0.058651023,0.273704791,1.026392937,0.097751703,1.417399788,1.124144673,1.231671572,0.14662756,0.195503416,0.234604096,0.293255119
0.107526886,0.332355833,0.361681342,0.439882708,0.087976542,0.175953078,0.156402731,2.09188652,0.068426199,0.068426199,0.342130995,1.16324532,0.107526886,1.632453537,1.133919835,1.251221895,0.156402731,0.175953078,0.224828935,0.283479958
0.117302048,0.400782013,0.410557175,0.410557175,0.107526886,0.185728254,0.14662756,2.003910065,0.068426199,0.058651023,0.322580624,1.143694997,0.107526886,1.661779022,0.98729229,1.192570925,0.14662756,0.14662756,0.205278587,0.283479958
0.117302048,0.361681342,0.420332336,0.420332336,0.097751703,0.215053773,0.195503416,2.082111359,0.078201365,0.078201365,0.312805462,1.094819183,0.127077222,1.700879812,0.869990253,1.358748794,0.14662756,0.127077222,0.215053773,0.273704791
0.117302048,0.351906157,0.410557175,0.410557175,0.097751703,0.215053773,0.195503416,1.945259094,0.087976542,0.087976542,0.283479958,1.290322542,0.136852396,2.062561035,0.801564026,1.564027309,0.156402731,0.117302048,0.205278587,0.273704791
0.127077222,0.332355833,0.391006832,0.371456504,0.107526886,0.244379282,0.175953078,1.974584579,0.087976542,0.107526886,0.254154444,1.42717495,0.136852396,2.228739023,0.801564026,1.446725368,0.156402731,0.107526886,0.205278587,0.273704791
0.117302048,0.312805462,0.420332336,0.371456504,0.107526886,0.234604096,0.166177917,1.788856268,0.087976542,0.136852396,0.322580624,1.388074284,0.136852396,2.189638376,0.801564026,1.476050854,0.156402731,0.097751703,0.195503416,0.263929605
0.127077222,0.3030303,0.488758564,0.391006832,0.107526886,0.205278587,0.156402731,1.65200386,0.087976542,0.127077222,0.38123167,1.388074284,0.14662756,1.89638319,0.703812313,1.358748794,0.136852396,0.107526886,0.175953078,0.273704791
0.107526886,0.3030303,0.449657869,0.361681342,0.107526886,0.224828935,0.156402731,1.788856268,0.087976542,0.14662756,0.342130995,1.446725368,0.156402731,1.906158352,0.733137846,1.495601177,0.14662756,0.097751703,0.175953078,0.283479958
0.107526886,0.283479958,0.498533726,0.371456504,0.107526886,0.195503416,0.14662756,1.808406639,0.087976542,0.195503416,0.3030303,1.69110465,0.175953078,1.681329346,0.733137846,1.42717495,0.136852396,0.097751703,0.195503416,0.283479958
0.097751703,0.283479958,0.527859211,0.38123167,0.107526886,0.175953078,0.14662756,1.739980459,0.087976542,0.175953078,0.342130995,1.720430136,0.205278587,1.642228699,0.635386086,1.33919847,0.14662756,0.087976542,0.215053773,0.273704791
0.097751703,0.3030303,0.518084049,0.400782013,0.107526886,0.185728254,0.14662756,1.681329346,0.087976542,0.185728254,0.342130995,1.788856268,0.224828935,1.407624626,0.557184744,1.202346087,0.14662756,0.087976542,0.205278587,0.283479958
0.107526886,0.38123167,0.518084049,0.400782013,0.107526886,0.166177917,0.136852396,1.642228699,0.087976542,0.175953078,0.342130995,1.573802567,0.215053773,1.153470159,0.488758564,1.231671572,0.136852396,0.097751703,0.195503416,0.322580624
0.107526886,0.449657869,0.53763442,0.38123167,0.107526886,0.14662756,0.14662756,1.65200386,0.078201365,0.185728254,0.351906157,1.446725368,0.215053773,1.026392937,0.430107546,1.231671572,0.156402731,0.087976542,0.185728254,0.322580624
0.117302048,0.459433031,0.566959906,0.38123167,0.097751703,0.136852396,0.136852396,1.417399788,0.087976542,0.205278587,0.342130995,1.505376339,0.234604096,0.977517128,0.351906157,1.300097704,0.156402731,0.087976542,0.195503416,0.3030303
0.117302048,0.478983355,0.53763442,0.391006832,0.097751703,0.117302048,0.136852396,1.329423308,0.078201365,0.185728254,0.322580624,1.397849445,0.224828935,0.821114349,0.3030303,1.251221895,0.136852396,0.078201365,0.215053773,0.342130995
0.136852396,0.498533726,0.586510229,0.38123167,0.087976542,0.117302048,0.127077222,1.260997057,0.087976542,0.195503416,0.293255119,1.251221895,0.283479958,0.703812313,0.273704791,1.153470159,0.127077222,0.078201365,0.205278587,0.322580624
0.127077222,0.576735067,0.615835762,0.38123167,0.097751703,0.097751703,0.136852396,1.241446733,0.087976542,0.205278587,0.283479958,1.241446733,0.283479958,0.615835762,0.3030303,1.192570925,0.136852396,0.078201365,0.224828935,0.312805462
0.127077222,0.615835762,0.576735067,0.371456504,0.097751703,0.107526886,0.127077222,1.270772219,0.087976542,0.215053773,0.3030303,1.094819183,0.254154444,0.557184744,0.263929605,1.300097704,0.136852396,0.078201365,0.234604096,0.312805462
0.117302048,0.6060606,0.586510229,0.342130995,0.097751703,0.097751703,0.127077222,1.173020482,0.087976542,0.244379282,0.273704791,0.957966709,0.254154444,0.498533726,0.254154444,1.212121248,0.156402731,0.078201365,0.224828935,0.312805462
0.107526886,0.615835762,0.625610924,0.322580624,0.087976542,0.078201365,0.127077222,1.006842613,0.087976542,0.244379282,0.273704791,1.016617775,0.312805462,0.449657869,0.234604096,1.10459435,0.156402731,0.078201365,0.205278587,0.322580624
0.097751703,0.625610924,0.596285439,0.322580624,0.087976542,0.078201365,0.127077222,0.957966709,0.078201365,0.254154444,0.312805462,1.10459435,0.410557175,0.400782013,0.224828935,0.997067451,0.166177917,0.078201365,0.205278587,0.332355833
0.087976542,0.615835762,0.654936409,0.332355833,0.107526886,0.068426199,0.127077222,0.918866062,0.087976542,0.254154444,0.293255119,1.036168098,0.420332336,0.400782013,0.224828935,0.879765415,0.156402731,0.097751703,0.195503416,0.322580624
0.078201365,0.596285439,0.733137846,0.312805462,0.097751703,0.058651023,0.117302048,0.879765415,0.087976542,0.283479958,0.273704791,0.879765415,0.459433031,0.361681342,0.263929605,0.772238493,0.166177917,0.097751703,0.215053773,0.361681342
0.068426199,0.625610924,0.703812313,0.293255119,0.097751703,0.058651023,0.117302048,0.811339188,0.087976542,0.293255119,0.283479958,0.742913008,0.527859211,0.342130995,0.283479958,0.694037151,0.185728254,0.097751703,0.205278587,0.371456504
0.078201365,0.596285439,0.713587475,0.283479958,0.097751703,0.058651023,0.127077222,0.742913008,0.078201365,0.400782013,0.263929605,0.674486828,0.547409582,0.312805462,0.3030303,0.674486828,0.166177917,0.107526886,0.195503416,0.361681342
0.097751703,0.625610924,0.733137846,0.293255119,0.097751703,0.068426199,0.127077222,0.635386086,0.068426199,0.400782013,0.293255119,0.596285439,0.596285439,0.351906157,0.273704791,0.615835762,0.156402731,0.097751703,0.185728254,0.351906157
0.107526886,0.586510229,0.801564026,0.3030303,0.107526886,0.078201365,0.127077222,0.53763442,0.068426199,0.430107546,0.293255119,0.488758564,0.566959906,0.332355833,0.273704791,0.53763442,0.166177917,0.097751703,0.185728254,0.332355833
0.107526886,0.615835762,0.830889511,0.342130995,0.107526886,0.087976542,0.117302048,0.469208193,0.078201365,0.469208193,0.293255119,0.391006832,0.508308887,0.322580624,0.263929605,0.459433031,0.14662756,0.097751703,0.185728254,0.332355833
0.097751703,0.625610924,0.957966709,0.3030303,0.097751703,0.087976542,0.117302048,0.410557175,0.078201365,0.469208193,0.283479958,0.312805462,0.625610924,0.38123167,0.244379282,0.449657869,0.136852396,0.097751703,0.175953078,0.3030303
0.087976542,0.664711666,0.98729229,0.3030303,0.097751703,0.097751703,0.107526886,0.371456504,0.078201365,0.508308887,0.3030303,0.263929605,0.772238493,0.410557175,0.254154444,0.469208193,0.127077222,0.087976542,0.205278587,0.312805462
0.078201365,0.694037151,1.055718422,0.3030303,0.107526886,0.107526886,0.107526886,0.342130995,0.087976542,0.566959906,0.361681342,0.224828935,0.752688169,0.430107546,0.273704791,0.459433031,0.127077222,0.097751703,0.185728254,0.342130995
0.068426199,0.879765415,1.094819183,0.273704791,0.097751703,0.087976542,0.097751703,0.293255119,0.087976542,0.576735067,0.351906157,0.205278587,0.830889511,0.469208193,0.263929605,0.420332336,0.127077222,0.087976542,0.175953078,0.361681342
0.078201365,0.948191547,1.153470159,0.254154444,0.087976542,0.078201365,0.107526886,0.273704791,0.078201365,0.547409582,0.400782013,0.185728254,0.977517128,0.508308887,0.263929605,0.400782013,0.127077222,0.068426199,0.185728254,0.38123167
0.078201365,0.830889511,1.065493703,0.244379282,0.078201365,0.068426199,0.107526886,0.254154444,0.078201365,0.596285439,0.410557175,0.175953078,0.938416386,0.478983355,0.283479958,0.391006832,0.136852396,0.068426199,0.205278587,0.391006832
0.087976542,0.742913008,1.114369512,0.283479958,0.078201365,0.068426199,0.127077222,0.224828935,0.078201365,0.674486828,0.430107546,0.166177917,0.967741871,0.449657869,0.322580624,0.361681342,0.14662756,0.058651023,0.185728254,0.371456504
0.087976542,0.957966709,1.16324532,0.293255119,0.087976542,0.078201365,0.127077222,0.195503416,0.087976542,0.733137846,0.478983355,0.156402731,1.094819183,0.459433031,0.332355833,0.332355833,0.14662756,0.058651023,0.175953078,0.361681342
0.087976542,0.938416386,1.251221895,0.283479958,0.107526886,0.078201365,0.117302048,0.175953078,0.087976542,0.772238493,0.478983355,0.14662756,0.948191547,0.576735067,0.322580624,0.351906157,0.136852396,0.058651023,0.175953078,0.332355833
0.087976542,0.889540577,1.231671572,0.3030303,0.097751703,0.087976542,0.117302048,0.156402731,0.087976542,1.055718422,0.430107546,0.14662756,0.928641224,0.547409582,0.293255119,0.312805462,0.14662756,0.068426199,0.175953078,0.361681342
0.097751703,0.821114349,1.124144673,0.293255119,0.097751703,0.078201365,0.107526886,0.14662756,0.087976542,1.212121248,0.420332336,0.127077222,1.006842613,0.557184744,0.312805462,0.273704791,0.14662756,0.068426199,0.166177917,0.38123167
0.087976542,0.772238493,1.173020482,0.273704791,0.087976542,0.078201365,0.117302048,0.136852396,0.087976542,1.319648147,0.391006832,0.117302048,1.04594326,0.547409582,0.312805462,0.263929605,0.175953078,0.068426199,0.175953078,0.351906157
0.087976542,0.772238493,1.212121248,0.244379282,0.078201365,0.068426199,0.117302048,0.127077222,0.097751703,1.368523955,0.391006832,0.107526886,0.98729229,0.635386086,0.342130995,0.234604096,0.175953078,0.058651023,0.185728254,0.322580624
0.097751703,0.85043993,1.260997057,0.234604096,0.087976542,0.068426199,0.117302048,0.136852396,0.087976542,1.270772219,0.449657869,0.117302048,0.967741871,0.596285439,0.38123167,0.224828935,0.195503416,0.068426199,0.195503416,0.293255119
0.097751703,0.742913008,1.192570925,0.273704791,0.097751703,0.058651023,0.107526886,0.14662756,0.087976542,1.22189641,0.439882708,0.136852396,1.006842613,0.723362684,0.430107546,0.254154444,0.205278587,0.078201365,0.175953078,0.342130995
0.107526886,0.625610924,1.133919835,0.283479958,0.097751703,0.058651023,0.107526886,0.14662756,0.087976542,1.348973632,0.459433031,0.156402731,0.899315739,0.694037151,0.410557175,0.244379282,0.205278587,0.097751703,0.185728254,0.322580624
0.107526886,0.664711666,1.143694997,0.273704791,0.097751703,0.058651023,0.107526886,0.166177917,0.078201365,1.59335289,0.459433031,0.166177917,1.006842613,0.723362684,0.400782013,0.234604096,0.224828935,0.097751703,0.185728254,0.332355833
0.107526886,0.694037151,1.085044022,0.283479958,0.087976542,0.058651023,0.097751703,0.166177917,0.087976542,1.524926662,0.420332336,0.351906157,0.977517128,0.654936409,0.420332336,0.244379282,0.244379282,0.097751703,0.175953078,0.342130995
0.107526886,0.752688169,1.143694997,0.273704791,0.078201365,0.078201365,0.097751703,0.175953078,0.087976542,1.476050854,0.420332336,0.391006832,0.928641224,0.596285439,0.420332336,0.244379282,0.273704791,0.097751703,0.205278587,0.312805462
0.107526886,0.762463331,1.202346087,0.263929605,0.078201365,0.078201365,0.097751703,0.185728254,0.087976542,1.378299117,0.410557175,0.361681342,0.830889511,0.518084049,0.38123167,0.254154444,0.293255119,0.107526886,0.205278587,0.312805462
0.097751703,0.752688169,1.28054738,0.244379282,0.078201365,0.068426199,0.087976542,0.205278587,0.087976542,1.368523955,0.420332336,0.38123167,0.811339188,0.576735067,0.391006832,0.244379282,0.312805462,0.117302048,0.215053773,0.332355833
0.097751703,0.664711666,1.417399788,0.263929605,0.078201365,0.087976542,0.087976542,0.195503416,0.087976542,1.515151501,0.371456504,0.420332336,0.703812313,0.596285439,0.400782013,0.254154444,0.342130995,0.136852396,0.224828935,0.322580624
0.097751703,0.615835762,1.309872866,0.312805462,0.078201365,0.087976542,0.078201365,0.244379282,0.087976542,1.671554184,0.400782013,0.449657869,0.713587475,0.53763442,0.400782013,0.293255119,0.410557175,0.166177917,0.205278587,0.3030303
0.097751703,0.576735067,1.251221895,0.312805462,0.097751703,0.087976542,0.078201365,0.254154444,0.087976542,1.769305944,0.38123167,0.469208193,0.625610924,0.547409582,0.371456504,0.3030303,0.391006832,0.175953078,0.224828935,0.293255119
0.097751703,0.596285439,1.28054738,0.322580624,0.107526886,0.097751703,0.078201365,0.3030303,0.078201365,1.69110465,0.420332336,0.430107546,0.547409582,0.527859211,0.361681342,0.322580624,0.371456504,0.175953078,0.224828935,0.273704791
0.087976542,0.53763442,1.260997057,0.3030303,0.097751703,0.097751703,0.087976542,0.283479958,0.078201365,1.59335289,0.371456504,0.547409582,0.518084049,0.518084049,0.351906157,0.410557175,0.420332336,0.175953078,0.224828935,0.273704791
0.078201365,0.566959906,1.290322542,0.312805462,0.078201365,0.107526886,0.078201365,0.293255119,0.078201365,1.485826015,0.371456504,0.527859211,0.439882708,0.527859211,0.430107546,0.576735067,0.391006832,0.175953078,0.263929605,0.254154444
0.087976542,0.527859211,1.241446733,0.322580624,0.087976542,0.117302048,0.087976542,0.312805462,0.078201365,1.348973632,0.391006832,0.488758564,0.400782013,0.635386086,0.400782013,0.518084049,0.38123167,0.185728254,0.244379282,0.254154444
0.087976542,0.488758564,1.260997057,0.312805462,0.087976542,0.107526886,0.078201365,0.449657869,0.078201365,1.417399788,0.361681342,0.449657869,0.38123167,0.674486828,0.449657869,0.557184744,0.400782013,0.195503416,0.263929605,0.283479958
0.087976542,0.469208193,1.358748794,0.332355833,0.087976542,0.097751703,0.078201365,0.508308887,0.068426199,1.270772219,0.478983355,0.469208193,0.312805462,0.635386086,0.420332336,0.576735067,0.469208193,0.195503416,0.254154444,0.293255119
0.087976542,0.459433031,1.290322542,0.342130995,0.087976542,0.107526886,0.078201365,0.508308887,0.068426199,1.143694997,0.449657869,0.449657869,0.283479958,0.596285439,0.430107546,0.586510229,0.586510229,0.175953078,0.273704791,0.293255119
0.087976542,0.498533726,1.28054738,0.312805462,0.087976542,0.117302048,0.078201365,0.478983355,0.078201365,1.153470159,0.410557175,0.518084049,0.273704791,0.6060606,0.430107546,0.625610924,0.625610924,0.156402731,0.3030303,0.3030303
0.097751703,0.674486828,1.309872866,0.3030303,0.078201365,0.107526886,0.087976542,0.449657869,0.078201365,1.026392937,0.518084049,0.596285439,0.234604096,0.557184744,0.430107546,0.576735067,0.6060606,0.175953078,0.371456504,0.293255119
0.097751703,0.664711666,1.290322542,0.293255119,0.078201365,0.107526886,0.078201365,0.400782013,0.078201365,0.9090909,0.518084049,0.53763442,0.215053773,0.508308887,0.400782013,0.557184744,0.615835762,0.195503416,0.391006832,0.322580624
0.097751703,0.615835762,1.202346087,0.322580624,0.087976542,0.097751703,0.078201365,0.459433031,0.078201365,1.016617775,0.469208193,0.772238493,0.234604096,0.547409582,0.371456504,0.576735067,0.6060606,0.224828935,0.439882708,0.322580624
0.097751703,0.615835762,1.33919847,0.312805462,0.087976542,0.097751703,0.078201365,0.527859211,0.078201365,1.16324532,0.488758564,0.9090909,0.244379282,0.498533726,0.371456504,0.557184744,0.762463331,0.254154444,0.508308887,0.3030303
0.097751703,0.566959906,1.260997057,0.332355833,0.097751703,0.087976542,0.087976542,0.527859211,0.078201365,1.202346087,0.469208193,0.801564026,0.224828935,0.469208193,0.342130995,0.53763442,0.840664673,0.293255119,0.527859211,0.3030303
0.107526886,0.596285439,1.45650053,0.342130995,0.087976542,0.078201365,0.078201365,0.635386086,0.068426199,1.094819183,0.478983355,0.762463331,0.224828935,0.430107546,0.312805462,0.557184744,0.830889511,0.361681342,0.53763442,0.273704791
0.097751703,0.557184744,1.397849445,0.332355833,0.097751703,0.078201365,0.078201365,0.586510229,0.068426199,1.075268865,0.478983355,0.791788864,0.234604096,0.420332336,0.3030303,0.576735067,0.811339188,0.420332336,0.566959906,0.244379282
0.097751703,0.478983355,1.544476986,0.351906157,0.087976542,0.068426199,0.078201365,0.664711666,0.068426199,1.006842613,0.420332336,0.801564026,0.283479958,0.400782013,0.283479958,0.566959906,0.752688169,0.439882708,0.586510229,0.234604096
0.087976542,0.439882708,1.466275692,0.391006832,0.097751703,0.068426199,0.068426199,0.703812313,0.068426199,1.026392937,0.420332336,0.791788864,0.273704791,0.351906157,0.332355833,0.527859211,0.733137846,0.488758564,0.576735067,0.234604096
0.097751703,0.400782013,1.358748794,0.400782013,0.078201365,0.058651023,0.087976542,0.791788864,0.068426199,1.026392937,0.400782013,0.9090909,0.273704791,0.351906157,0.371456504,0.518084049,0.752688169,0.53763442,0.635386086,0.234604096
0.097751703,0.361681342,1.358748794,0.400782013,0.087976542,0.048875852,0.078201365,0.811339188,0.078201365,0.9090909,0.439882708,0.85043993,0.263929605,0.420332336,0.410557175,0.488758564,0.772238493,0.596285439,0.6060606,0.224828935
0.097751703,0.439882708,1.241446733,0.430107546,0.087976542,0.039100683,0.078201365,0.811339188,0.087976542,0.869990253,0.498533726,0.860215092,0.293255119,0.478983355,0.410557175,0.527859211,0.830889511,0.635386086,0.645161247,0.234604096
0.097751703,0.420332336,1.173020482,0.439882708,0.087976542,0.039100683,0.078201365,0.801564026,0.087976542,0.821114349,0.439882708,0.967741871,0.312805462,0.478983355,0.38123167,0.566959906,0.948191547,0.654936409,0.645161247,0.224828935
0.087976542,0.371456504,1.006842613,0.38123167,0.078201365,0.039100683,0.087976542,0.869990253,0.087976542,0.869990253,0.391006832,0.948191547,0.361681342,0.635386086,0.371456504,0.547409582,1.094819183,0.576735067,0.703812313,0.244379282
0.087976542,0.351906157,0.85043993,0.420332336,0.078201365,0.039100683,0.097751703,1.04594326,0.087976542,0.879765415,0.420332336,1.016617775,0.342130995,0.635386086,0.351906157,0.6060606,1.182795639,0.498533726,0.879765415,0.224828935
0.078201365,0.391006832,0.782013655,0.410557175,0.078201365,0.048875852,0.097751703,1.006842613,0.078201365,0.997067451,0.391006832,1.309872866,0.332355833,0.615835762,0.371456504,0.586510229,1.182795639,0.439882708,0.791788864,0.224828935
0.078201365,0.38123167,0.752688169,0.469208193,0.078201365,0.058651023,0.097751703,0.928641224,0.078201365,0.889540577,0.400782013,1.544476986,0.38123167,0.635386086,0.361681342,0.566959906,1.212121248,0.371456504,0.811339188,0.205278587
0.078201365,0.361681342,0.713587475,0.469208193,0.087976542,0.068426199,0.087976542,0.98729229,0.078201365,0.869990253,0.410557175,1.436950111,0.459433031,0.625610924,0.361681342,0.596285439,1.153470159,0.439882708,0.811339188,0.205278587
0.087976542,0.351906157,0.645161247,0.488758564,0.078201365,0.078201365,0.087976542,0.889540577,0.087976542,0.762463331,0.459433031,1.397849445,0.439882708,0.576735067,0.351906157,0.566959906,1.075268865,0.420332336,0.889540577,0.195503416
0.107526886,0.322580624,0.557184744,0.518084049,0.068426199,0.078201365,0.087976542,0.918866062,0.087976542,0.782013655,0.449657869,1.251221895,0.420332336,0.596285439,0.361681342,0.557184744,1.085044022,0.400782013,0.860215092,0.195503416
0.107526886,0.3030303,0.527859211,0.518084049,0.078201365,0.087976542,0.097751703,0.918866062,0.087976542,0.752688169,0.391006832,1.182795639,0.449657869,0.596285439,0.332355833,0.53763442,1.114369512,0.439882708,0.830889511,0.205278587
0.107526886,0.312805462,0.469208193,0.566959906,0.087976542,0.087976542,0.087976542,0.899315739,0.078201365,0.68426199,0.38123167,1.133919835,0.430107546,0.53763442,0.351906157,0.53763442,1.42717495,0.498533726,0.772238493,0.195503416
0.097751703,0.273704791,0.439882708,0.547409582,0.087976542,0.087976542,0.078201365,0.938416386,0.087976542,0.635386086,0.38123167,1.260997057,0.410557175,0.527859211,0.351906157,0.53763442,1.485826015,0.420332336,0.772238493,0.195503416
0.097751703,0.263929605,0.400782013,0.498533726,0.087976542,0.078201365,0.097751703,0.948191547,0.087976542,0.664711666,0.342130995,1.143694997,0.410557175,0.478983355,0.332355833,0.508308887,1.45650053,0.38123167,0.811339188,0.175953078
0.097751703,0.273704791,0.420332336,0.566959906,0.087976542,0.078201365,0.097751703,0.928641224,0.087976542,0.615835762,0.342130995,1.094819183,0.400782013,0.439882708,0.342130995,0.498533726,1.69110465,0.322580624,0.791788864,0.185728254
0.087976542,0.263929605,0.478983355,0.566959906,0.078201365,0.068426199,0.087976542,0.869990253,0.078201365,0.586510229,0.410557175,1.124144673,0.371456504,0.488758564,0.322580624,0.488758564,1.554252148,0.312805462,0.860215092,0.195503416
0.097751703,0.263929605,0.410557175,0.53763442,0.087976542,0.058651023,0.087976542,0.997067451,0.078201365,0.557184744,0.38123167,1.065493703,0.361681342,0.488758564,0.312805462,0.459433031,1.564027309,0.273704791,0.860215092,0.185728254
0.097751703,0.244379282,0.351906157,0.557184744,0.087976542,0.058651023,0.078201365,1.016617775,0.078201365,0.527859211,0.371456504,1.22189641,0.361681342,0.498533726,0.312805462,0.439882708,1.476050854,0.244379282,0.9090909,0.195503416
0.097751703,0.234604096,0.351906157,0.635386086,0.097751703,0.058651023,0.087976542,0.967741871,0.078201365,0.527859211,0.371456504,1.28054738,0.312805462,0.478983355,0.3030303,0.459433031,1.270772219,0.234604096,1.04594326,0.195503416
0.097751703,0.215053773,0.3030303,0.723362684,0.107526886,0.058651023,0.078201365,0.977517128,0.078201365,0.518084049,0.342130995,1.133919835,0.312805462,0.449657869,0.332355833,0.478983355,1.065493703,0.215053773,1.016617775,0.185728254
0.097751703,0.195503416,0.273704791,0.723362684,0.097751703,0.058651023,0.078201365,1.016617775,0.087976542,0.508308887,0.342130995,1.212121248,0.322580624,0.449657869,0.342130995,0.439882708,0.899315739,0.185728254,1.026392937,0.185728254
0.087976542,0.185728254,0.293255119,0.694037151,0.087976542,0.058651023,0.068426199,0.879765415,0.087976542,0.518084049,0.322580624,1.173020482,0.283479958,0.420332336,0.312805462,0.439882708,0.791788864,0.175953078,0.997067451,0.175953078
0.087976542,0.175953078,0.273704791,0.654936409,0.087976542,0.068426199,0.068426199,0.821114349,0.087976542,0.6060606,0.3030303,1.065493703,0.283479958,0.391006832,0.293255119,0.449657869,0.713587475,0.205278587,0.948191547,0.185728254
0.087976542,0.175953078,0.254154444,0.742913008,0.097751703,0.068426199,0.068426199,0.918866062,0.087976542,0.557184744,0.332355833,1.065493703,0.312805462,0.371456504,0.293255119,0.449657869,0.6060606,0.224828935,0.9090909,0.185728254
0.097751703,0.14662756,0.263929605,0.752688169,0.087976542,0.068426199,0.068426199,0.85043993,0.078201365,0.547409582,0.312805462,1.153470159,0.312805462,0.351906157,0.273704791,0.430107546,0.6060606,0.215053773,0.9090909,0.166177917
0.097751703,0.156402731,0.283479958,0.879765415,0.087976542,0.068426199,0.078201365,0.742913008,0.078201365,0.645161247,0.312805462,1.143694997,0.322580624,0.371456504,0.244379282,0.420332336,0.53763442,0.215053773,1.036168098,0.166177917
0.097751703,0.166177917,0.273704791,0.860215092,0.078201365,0.078201365,0.078201365,0.664711666,0.087976542,0.635386086,0.361681342,1.192570925,0.293255119,0.332355833,0.234604096,0.488758564,0.518084049,0.224828935,1.270772219,0.166177917
0.087976542,0.156402731,0.263929605,1.036168098,0.068426199,0.078201365,0.078201365,0.713587475,0.087976542,0.586510229,0.342130995,1.114369512,0.263929605,0.3030303,0.244379282,0.439882708,0.478983355,0.283479958,1.300097704,0.166177917
0.078201365,0.175953078,0.254154444,1.124144673,0.078201365,0.078201365,0.078201365,0.723362684,0.087976542,0.576735067,0.293255119,1.006842613,0.263929605,0.283479958,0.254154444,0.430107546,0.449657869,0.322580624,1.45650053,0.166177917
0.078201365,0.195503416,0.234604096,1.231671572,0.078201365,0.087976542,0.087976542,0.615835762,0.087976542,0.508308887,0.3030303,0.869990253,0.312805462,0.3030303,0.234604096,0.400782013,0.420332336,0.322580624,1.378299117,0.166177917
0.097751703,0.195503416,0.224828935,1.202346087,0.078201365,0.078201365,0.078201365,0.625610924,0.078201365,0.53763442,0.3030303,0.791788864,0.312805462,0.3030303,0.215053773,0.361681342,0.410557175,0.3030303,1.358748794,0.166177917
0.097751703,0.166177917,0.234604096,1.329423308,0.078201365,0.068426199,0.097751703,0.596285439,0.078201365,0.547409582,0.342130995,0.703812313,0.293255119,0.3030303,0.244379282,0.312805462,0.371456504,0.283479958,1.192570925,0.156402731
0.097751703,0.156402731,0.224828935,1.436950111,0.078201365,0.068426199,0.097751703,0.645161247,0.078201365,0.576735067,0.342130995,0.664711666,0.3030303,0.3030303,0.244379282,0.293255119,0.371456504,0.263929605,1.192570925,0.166177917
0.097751703,0.156402731,0.254154444,1.397849445,0.087976542,0.068426199,0.087976542,0.68426199,0.078201365,0.694037151,0.322580624,0.654936409,0.273704791,0.263929605,0.234604096,0.263929605,0.351906157,0.254154444,1.065493703,0.14662756
0.087976542,0.166177917,0.263929605,1.348973632,0.087976542,0.058651023,0.097751703,0.694037151,0.078201365,0.752688169,0.3030303,0.733137846,0.293255119,0.263929605,0.244379282,0.283479958,0.332355833,0.234604096,0.918866062,0.166177917
0.087976542,0.166177917,0.332355833,1.22189641,0.087976542,0.068426199,0.087976542,0.713587475,0.078201365,0.723362684,0.283479958,0.664711666,0.312805462,0.263929605,0.224828935,0.283479958,0.342130995,0.215053773,0.811339188,0.166177917
0.097751703,0.14662756,0.391006832,1.124144673,0.087976542,0.068426199,0.087976542,0.938416386,0.087976542,0.654936409,0.293255119,0.674486828,0.293255119,0.254154444,0.205278587,0.293255119,0.361681342,0.195503416,0.811339188,0.185728254
0.087976542,0.136852396,0.400782013,1.231671572,0.078201365,0.068426199,0.078201365,0.918866062,0.097751703,0.654936409,0.293255119,0.586510229,0.293255119,0.224828935,0.224828935,0.273704791,0.342130995,0.175953078,0.801564026,0.166177917
0.087976542,0.127077222,0.459433031,1.358748794,0.087976542,0.068426199,0.078201365,0.938416386,0.097751703,0.664711666,0.283479958,0.518084049,0.263929605,0.215053773,0.215053773,0.283479958,0.332355833,0.175953078,0.752688169,0.156402731
0.097751703,0.107526886,0.420332336,1.388074284,0.078201365,0.068426199,0.078201365,0.967741871,0.097751703,0.664711666,0.263929605,0.459433031,0.273704791,0.244379282,0.215053773,0.254154444,0.322580624,0.166177917,0.703812313,0.14662756
0.097751703,0.117302048,0.430107546,1.358748794,0.078201365,0.068426199,0.087976542,0.840664673,0.087976542,0.586510229,0.263929605,0.469208193,0.322580624,0.244379282,0.224828935,0.244379282,0.322580624,0.185728254,0.596285439,0.136852396
0.078201365,0.107526886,0.508308887,1.231671572,0.087976542,0.078201365,0.087976542,0.752688169,0.097751703,0.557184744,0.273704791,0.478983355,0.3030303,0.244379282,0.234604096,0.244379282,0.322580624,0.175953078,0.576735067,0.156402731
0.078201365,0.107526886,0.498533726,1.260997057,0.078201365,0.078201365,0.087976542,0.85043993,0.087976542,0.645161247,0.273704791,0.488758564,0.3030303,0.224828935,0.234604096,0.254154444,0.342130995,0.156402731,0.6060606,0.166177917
0.087976542,0.107526886,0.53763442,1.348973632,0.087976542,0.087976542,0.087976542,0.899315739,0.097751703,0.703812313,0.254154444,0.557184744,0.3030303,0.205278587,0.224828935,0.244379282,0.371456504,0.136852396,0.615835762,0.205278587
0.107526886,0.097751703,0.53763442,1.28054738,0.078201365,0.078201365,0.078201365,0.791788864,0.097751703,0.596285439,0.234604096,0.645161247,0.273704791,0.215053773,0.215053773,0.254154444,0.351906157,0.117302048,0.586510229,0.283479958
0.107526886,0.107526886,0.557184744,1.231671572,0.087976542,0.078201365,0.068426199,0.762463331,0.097751703,0.547409582,0.254154444,0.566959906,0.283479958,0.215053773,0.195503416,0.263929605,0.332355833,0.107526886,0.527859211,0.312805462
0.097751703,0.117302048,0.635386086,1.173020482,0.078201365,0.087976542,0.068426199,0.821114349,0.107526886,0.488758564,0.273704791,0.498533726,0.273704791,0.224828935,0.195503416,0.244379282,0.3030303,0.097751703,0.478983355,0.293255119
0.087976542,0.107526886,0.645161247,1.143694997,0.068426199,0.078201365,0.078201365,0.821114349,0.117302048,0.430107546,0.3030303,0.53763442,0.244379282,0.224828935,0.195503416,0.224828935,0.273704791,0.087976542,0.439882708,0.263929605
0.078201365,0.107526886,0.625610924,1.094819183,0.068426199,0.078201365,0.087976542,0.830889511,0.117302048,0.410557175,0.322580624,0.53763442,0.244379282,0.195503416,0.185728254,0.205278587,0.254154444,0.087976542,0.371456504,0.273704791
0.078201365,0.117302048,0.674486828,1.143694997,0.068426199,0.068426199,0.078201365,0.742913008,0.127077222,0.410557175,0.3030303,0.498533726,0.215053773,0.175953078,0.205278587,0.224828935,0.273704791,0.097751703,0.351906157,0.234604096
0.068426199,0.127077222,0.703812313,1.192570925,0.087976542,0.068426199,0.078201365,0.811339188,0.127077222,0.391006832,0.361681342,0.566959906,0.215053773,0.166177917,0.185728254,0.224828935,0.244379282,0.107526886,0.351906157,0.224828935
0.068426199,0.117302048,0.713587475,1.212121248,0.097751703,0.068426199,0.078201365,0.713587475,0.136852396,0.361681342,0.400782013,0.53763442,0.215053773,0.166177917,0.215053773,0.205278587,0.244379282,0.097751703,0.312805462,0.205278587
0.078201365,0.097751703,0.664711666,1.075268865,0.087976542,0.068426199,0.078201365,0.654936409,0.14662756,0.371456504,0.508308887,0.527859211,0.205278587,0.175953078,0.224828935,0.215053773,0.263929605,0.097751703,0.283479958,0.205278587
0.087976542,0.097751703,0.694037151,1.133919835,0.097751703,0.068426199,0.078201365,0.576735067,0.156402731,0.371456504,0.53763442,0.498533726,0.185728254,0.166177917,0.244379282,0.205278587,0.273704791,0.097751703,0.244379282,0.205278587
0.097751703,0.087976542,0.742913008,1.10459435,0.078201365,0.058651023,0.078201365,0.53763442,0.156402731,0.351906157,0.527859211,0.518084049,0.195503416,0.166177917,0.254154444,0.195503416,0.254154444,0.117302048,0.224828935,0.205278587
0.087976542,0.087976542,0.762463331,1.055718422,0.087976542,0.068426199,0.087976542,0.527859211,0.156402731,0.371456504,0.518084049,0.596285439,0.195503416,0.185728254,0.244379282,0.185728254,0.273704791,0.14662756,0.205278587,0.254154444
0.078201365,0.087976542,0.694037151,1.036168098,0.087976542,0.078201365,0.078201365,0.518084049,0.156402731,0.400782013,0.625610924,0.68426199,0.195503416,0.175953078,0.244379282,0.205278587,0.263929605,0.205278587,0.195503416,0.263929605
0.078201365,0.087976542,0.703812313,1.016617775,0.087976542,0.078201365,0.068426199,0.635386086,0.166177917,0.38123167,0.625610924,0.566959906,0.195503416,0.175953078,0.244379282,0.185728254,0.3030303,0.3030303,0.185728254,0.263929605
0.087976542,0.078201365,0.625610924,1.153470159,0.087976542,0.087976542,0.078201365,0.566959906,0.166177917,0.38123167,0.801564026,0.586510229,0.195503416,0.166177917,0.254154444,0.166177917,0.283479958,0.420332336,0.175953078,0.283479958
0.087976542,0.107526886,0.615835762,1.085044022,0.078201365,0.078201365,0.078201365,0.508308887,0.14662756,0.371456504,0.782013655,0.53763442,0.175953078,0.14662756,0.254154444,0.175953078,0.293255119,0.518084049,0.175953078,0.38123167
0.097751703,0.097751703,0.596285439,1.055718422,0.087976542,0.068426199,0.087976542,0.518084049,0.14662756,0.332355833,0.85043993,0.498533726,0.175953078,0.166177917,0.244379282,0.175953078,0.3030303,0.439882708,0.175953078,0.38123167
0.097751703,0.087976542,0.566959906,1.006842613,0.078201365,0.058651023,0.078201365,0.488758564,0.127077222,0.293255119,0.957966709,0.449657869,0.175953078,0.166177917,0.224828935,0.166177917,0.342130995,0.439882708,0.166177917,0.391006832
0.087976542,0.078201365,0.566959906,1.04594326,0.087976542,0.068426199,0.078201365,0.430107546,0.136852396,0.283479958,0.938416386,0.478983355,0.205278587,0.166177917,0.224828935,0.156402731,0.332355833,0.547409582,0.14662756,0.371456504
0.087976542,0.078201365,0.615835762,1.094819183,0.097751703,0.068426199,0.078201365,0.371456504,0.14662756,0.263929605,1.055718422,0.508308887,0.195503416,0.166177917,0.224828935,0.166177917,0.3030303,0.635386086,0.14662756,0.38123167
0.087976542,0.087976542,0.674486828,1.231671572,0.087976542,0.068426199,0.078201365,0.498533726,0.175953078,0.254154444,1.290322542,0.488758564,0.195503416,0.185728254,0.224828935,0.166177917,0.3030303,0.596285439,0.166177917,0.400782013
0.097751703,0.087976542,0.654936409,1.192570925,0.087976542,0.068426199,0.078201365,0.68426199,0.215053773,0.224828935,1.368523955,0.469208193,0.215053773,0.224828935,0.205278587,0.166177917,0.3030303,0.508308887,0.156402731,0.371456504
0.087976542,0.078201365,0.674486828,1.10459435,0.087976542,0.058651023,0.078201365,0.664711666,0.205278587,0.234604096,1.534701824,0.449657869,0.234604096,0.224828935,0.215053773,0.175953078,0.293255119,0.478983355,0.136852396,0.38123167
0.087976542,0.078201365,0.713587475,1.153470159,0.097751703,0.068426199,0.078201365,0.596285439,0.195503416,0.254154444,1.524926662,0.38123167,0.224828935,0.185728254,0.215053773,0.175953078,0.293255119,0.439882708,0.136852396,0.371456504
0.087976542,0.087976542,0.782013655,1.397849445,0.087976542,0.058651023,0.087976542,0.576735067,0.205278587,0.254154444,1.612903214,0.400782013,0.215053773,0.156402731,0.205278587,0.156402731,0.273704791,0.391006832,0.14662756,0.361681342
0.097751703,0.087976542,0.703812313,1.358748794,0.087976542,0.058651023,0.078201365,0.6060606,0.195503416,0.234604096,1.622678375,0.361681342,0.185728254,0.14662756,0.215053773,0.156402731,0.283479958,0.361681342,0.136852396,0.391006832
0.097751703,0.087976542,0.733137846,1.22189641,0.078201365,0.068426199,0.078201365,0.547409582,0.195503416,0.224828935,1.955034256,0.391006832,0.185728254,0.127077222,0.205278587,0.156402731,0.254154444,0.351906157,0.127077222,0.469208193
0.097751703,0.087976542,0.762463331,1.251221895,0.078201365,0.068426199,0.078201365,0.508308887,0.175953078,0.244379282,2.072336197,0.439882708,0.175953078,0.127077222,0.215053773,0.175953078,0.244379282,0.332355833,0.136852396,0.459433031
0.087976542,0.087976542,0.821114349,1.065493703,0.078201365,0.068426199,0.078201365,0.449657869,0.224828935,0.234604096,2.072336197,0.391006832,0.166177917,0.117302048,0.224828935,0.195503416,0.234604096,0.342130995,0.136852396,0.478983355
0.097751703,0.078201365,0.830889511,1.270772219,0.068426199,0.068426199,0.087976542,0.420332336,0.254154444,0.224828935,2.082111359,0.478983355,0.156402731,0.097751703,0.224828935,0.166177917,0.254154444,0.332355833,0.156402731,0.498533726
0.097751703,0.068426199,0.830889511,1.16324532,0.068426199,0.078201365,0.078201365,0.400782013,0.244379282,0.215053773,2.160312891,0.518084049,0.166177917,0.097751703,0.224828935,0.14662756,0.283479958,0.361681342,0.185728254,0.527859211
0.097751703,0.068426199,0.782013655,1.16324532,0.068426199,0.078201365,0.078201365,0.400782013,0.234604096,0.215053773,1.906158352,0.557184744,0.166177917,0.087976542,0.224828935,0.136852396,0.263929605,0.322580624,0.205278587,0.6060606
0.087976542,0.068426199,0.821114349,1.241446733,0.068426199,0.078201365,0.078201365,0.400782013,0.263929605,0.283479958,1.739980459,0.53763442,0.166177917,0.078201365,0.244379282,0.127077222,0.283479958,0.293255119,0.205278587,0.615835762
0.078201365,0.068426199,0.840664673,1.251221895,0.078201365,0.087976542,0.078201365,0.478983355,0.263929605,0.273704791,1.632453537,0.469208193,0.166177917,0.078201365,0.283479958,0.127077222,0.273704791,0.244379282,0.205278587,0.68426199
0.087976542,0.068426199,0.879765415,1.153470159,0.097751703,0.078201365,0.078201365,0.518084049,0.234604096,0.244379282,1.495601177,0.420332336,0.14662756,0.078201365,0.273704791,0.117302048,0.273704791,0.254154444,0.234604096,0.645161247
0.087976542,0.078201365,0.899315739,1.358748794,0.107526886,0.078201365,0.087976542,0.488758564,0.224828935,0.224828935,1.681329346,0.420332336,0.205278587,0.068426199,0.273704791,0.107526886,0.283479958,0.293255119,0.244379282,0.723362684
0.078201365,0.078201365,0.85043993,1.270772219,0.097751703,0.078201365,0.078201365,0.439882708,0.234604096,0.205278587,1.83773222,0.508308887,0.205278587,0.078201365,0.273704791,0.117302048,0.263929605,0.293255119,0.254154444,0.811339188
0.087976542,0.087976542,0.879765415,1.329423308,0.087976542,0.068426199,0.078201365,0.38123167,0.224828935,0.205278587,1.730205297,0.478983355,0.185728254,0.078201365,0.263929605,0.107526886,0.254154444,0.254154444,0.244379282,0.772238493
0.087976542,0.087976542,0.860215092,1.231671572,0.087976542,0.068426199,0.078201365,0.459433031,0.254154444,0.175953078,1.788856268,0.469208193,0.175953078,0.078201365,0.273704791,0.117302048,0.273704791,0.234604096,0.3030303,0.840664673
0.087976542,0.097751703,0.85043993,1.212121248,0.078201365,0.068426199,0.078201365,0.469208193,0.263929605,0.166177917,1.925708675,0.420332336,0.166177917,0.068426199,0.263929605,0.117302048,0.263929605,0.205278587,0.332355833,0.840664673
0.097751703,0.097751703,0.762463331,1.505376339,0.068426199,0.068426199,0.078201365,0.478983355,0.273704791,0.185728254,1.671554184,0.410557175,0.156402731,0.068426199,0.263929605,0.107526886,0.254154444,0.175953078,0.342130995,0.772238493
0.087976542,0.097751703,0.703812313,1.466275692,0.078201365,0.068426199,0.087976542,0.420332336,0.283479958,0.215053773,1.564027309,0.361681342,0.14662756,0.068426199,0.244379282,0.107526886,0.263929605,0.166177917,0.351906157,0.791788864
0.087976542,0.097751703,0.635386086,1.378299117,0.087976542,0.058651023,0.087976542,0.459433031,0.322580624,0.175953078,1.515151501,0.361681342,0.156402731,0.058651023,0.224828935,0.107526886,0.234604096,0.185728254,0.371456504,0.869990253
0.087976542,0.097751703,0.586510229,1.28054738,0.097751703,0.058651023,0.087976542,0.420332336,0.351906157,0.156402731,1.417399788,0.3030303,0.14662756,0.068426199,0.254154444,0.107526886,0.224828935,0.185728254,0.410557175,0.889540577
0.087976542,0.097751703,0.586510229,1.42717495,0.097751703,0.058651023,0.087976542,0.439882708,0.430107546,0.136852396,1.251221895,0.263929605,0.14662756,0.068426199,0.254154444,0.097751703,0.215053773,0.175953078,0.439882708,0.9090909
0.078201365,0.087976542,0.596285439,1.524926662,0.107526886,0.058651023,0.078201365,0.459433031,0.557184744,0.175953078,1.28054738,0.244379282,0.166177917,0.058651023,0.263929605,0.107526886,0.224828935,0.166177917,0.449657869,0.918866062
0.078201365,0.078201365,0.547409582,1.446725368,0.107526886,0.068426199,0.078201365,0.439882708,0.566959906,0.14662756,1.436950111,0.215053773,0.156402731,0.058651023,0.254154444,0.107526886,0.244379282,0.185728254,0.508308887,1.016617775
0.078201365,0.087976542,0.547409582,1.505376339,0.097751703,0.068426199,0.078201365,0.430107546,0.615835762,0.14662756,1.319648147,0.195503416,0.136852396,0.058651023,0.283479958,0.107526886,0.234604096,0.175953078,0.596285439,0.938416386
0.078201365,0.078201365,0.478983355,1.476050854,0.107526886,0.068426199,0.078201365,0.430107546,0.645161247,0.14662756,1.192570925,0.185728254,0.127077222,0.068426199,0.3030303,0.107526886,0.234604096,0.273704791,0.6060606,0.967741871
0.087976542,0.097751703,0.449657869,1.397849445,0.107526886,0.068426199,0.068426199,0.420332336,0.596285439,0.14662756,1.153470159,0.273704791,0.127077222,0.068426199,0.312805462,0.107526886,0.215053773,0.342130995,0.557184744,1.026392937
0.097751703,0.087976542,0.439882708,1.348973632,0.097751703,0.068426199,0.078201365,0.391006832,0.596285439,0.14662756,1.153470159,0.312805462,0.127077222,0.068426199,0.342130995,0.107526886,0.224828935,0.332355833,0.586510229,1.006842613
0.097751703,0.087976542,0.420332336,1.28054738,0.097751703,0.068426199,0.078201365,0.371456504,0.615835762,0.14662756,1.075268865,0.283479958,0.136852396,0.068426199,0.332355833,0.107526886,0.254154444,0.3030303,0.6060606,1.036168098
0.087976542,0.087976542,0.439882708,1.309872866,0.087976542,0.068426199,0.078201365,0.361681342,0.615835762,0.156402731,1.026392937,0.283479958,0.14662756,0.068426199,0.361681342,0.107526886,0.234604096,0.254154444,0.586510229,1.006842613
0.087976542,0.087976542,0.391006832,1.485826015,0.078201365,0.068426199,0.078201365,0.410557175,0.625610924,0.156402731,0.889540577,0.391006832,0.14662756,0.068426199,0.400782013,0.107526886,0.244379282,0.234604096,0.6060606,0.967741871
0.087976542,0.087976542,0.38123167,1.348973632,0.087976542,0.068426199,0.078201365,0.38123167,0.713587475,0.166177917,0.733137846,0.410557175,0.127077222,0.058651023,0.449657869,0.097751703,0.234604096,0.254154444,0.576735067,0.928641224
0.087976542,0.087976542,0.351906157,1.329423308,0.078201365,0.078201365,0.078201365,0.351906157,0.742913008,0.14662756,0.645161247,0.38123167,0.127077222,0.068426199,0.488758564,0.097751703,0.234604096,0.3030303,0.547409582,0.967741871
0.087976542,0.087976542,0.312805462,1.388074284,0.107526886,0.078201365,0.078201365,0.400782013,0.694037151,0.136852396,0.527859211,0.342130995,0.117302048,0.058651023,0.469208193,0.087976542,0.224828935,0.3030303,0.53763442,0.997067451
0.078201365,0.087976542,0.273704791,1.290322542,0.107526886,0.078201365,0.087976542,0.361681342,0.694037151,0.166177917,0.430107546,0.293255119,0.117302048,0.058651023,0.566959906,0.097751703,0.215053773,0.293255119,0.557184744,1.10459435
0.087976542,0.078201365,0.312805462,1.192570925,0.107526886,0.068426199,0.087976542,0.38123167,0.762463331,0.14662756,0.361681342,0.263929605,0.117302048,0.058651023,0.625610924,0.097751703,0.185728254,0.283479958,0.547409582,1.085044022
0.087976542,0.087976542,0.312805462,1.094819183,0.107526886,0.068426199,0.087976542,0.342130995,0.742913008,0.127077222,0.312805462,0.224828935,0.117302048,0.068426199,0.635386086,0.087976542,0.215053773,0.254154444,0.566959906,1.10459435
0.078201365,0.087976542,0.322580624,0.938416386,0.107526886,0.068426199,0.087976542,0.38123167,0.742913008,0.117302048,0.312805462,0.185728254,0.127077222,0.078201365,0.586510229,0.097751703,0.205278587,0.234604096,0.527859211,1.075268865
0.097751703,0.087976542,0.293255119,0.840664673,0.127077222,0.068426199,0.078201365,0.342130995,0.762463331,0.117302048,0.273704791,0.166177917,0.127077222,0.087976542,0.615835762,0.097751703,0.195503416,0.224828935,0.557184744,1.094819183
0.087976542,0.078201365,0.312805462,0.791788864,0.136852396,0.068426199,0.078201365,0.3030303,0.9090909,0.127077222,0.263929605,0.14662756,0.117302048,0.107526886,0.723362684,0.097751703,0.185728254,0.195503416,0.576735067,1.006842613
0.087976542,0.078201365,0.3030303,0.713587475,0.136852396,0.068426199,0.087976542,0.283479958,0.98729229,0.117302048,0.234604096,0.127077222,0.107526886,0.107526886,0.821114349,0.107526886,0.175953078,0.185728254,0.557184744,0.9090909
0.087976542,0.087976542,0.273704791,0.586510229,0.136852396,0.068426199,0.087976542,0.273704791,1.173020482,0.127077222,0.205278587,0.107526886,0.107526886,0.107526886,0.938416386,0.107526886,0.185728254,0.195503416,0.488758564,0.840664673
0.087976542,0.078201365,0.273704791,0.557184744,0.156402731,0.068426199,0.087976542,0.273704791,1.133919835,0.127077222,0.205278587,0.107526886,0.097751703,0.117302048,1.04594326,0.107526886,0.195503416,0.185728254,0.478983355,0.752688169
0.087976542,0.078201365,0.273704791,0.518084049,0.185728254,0.068426199,0.087976542,0.244379282,1.124144673,0.107526886,0.195503416,0.087976542,0.087976542,0.14662756,1.065493703,0.107526886,0.234604096,0.166177917,0.498533726,0.68426199
0.087976542,0.078201365,0.254154444,0.478983355,0.175953078,0.068426199,0.087976542,0.215053773,1.182795639,0.097751703,0.224828935,0.097751703,0.087976542,0.136852396,1.065493703,0.097751703,0.234604096,0.195503416,0.508308887,0.6060606
0.078201365,0.078201365,0.244379282,0.410557175,0.175953078,0.068426199,0.087976542,0.195503416,1.300097704,0.097751703,0.224828935,0.087976542,0.078201365,0.175953078,1.085044022,0.097751703,0.215053773,0.175953078,0.488758564,0.53763442
0.087976542,0.078201365,0.234604096,0.361681342,0.215053773,0.068426199,0.087976542,0.175953078,1.358748794,0.097751703,0.234604096,0.087976542,0.078201365,0.166177917,1.055718422,0.107526886,0.234604096,0.215053773,0.498533726,0.518084049
0.087976542,0.078201365,0.205278587,0.391006832,0.244379282,0.078201365,0.087976542,0.166177917,1.28054738,0.107526886,0.263929605,0.087976542,0.068426199,0.185728254,0.98729229,0.107526886,0.215053773,0.283479958,0.557184744,0.459433031
0.087976542,0.078201365,0.205278587,0.391006832,0.254154444,0.078201365,0.087976542,0.224828935,1.564027309,0.107526886,0.283479958,0.087976542,0.068426199,0.195503416,0.9090909,0.117302048,0.234604096,0.322580624,0.527859211,0.469208193
0.078201365,0.068426199,0.205278587,0.400782013,0.254154444,0.078201365,0.078201365,0.224828935,1.397849445,0.097751703,0.263929605,0.097751703,0.068426199,0.224828935,0.938416386,0.136852396,0.215053773,0.351906157,0.508308887,0.430107546
0.078201365,0.068426199,0.205278587,0.420332336,0.293255119,0.078201365,0.078201365,0.293255119,1.388074284,0.087976542,0.312805462,0.087976542,0.068426199,0.263929605,1.133919835,0.14662756,0.205278587,0.400782013,0.488758564,0.38123167
0.078201365,0.078201365,0.205278587,0.430107546,0.293255119,0.078201365,0.078201365,0.273704791,1.485826015,0.087976542,0.312805462,0.087976542,0.068426199,0.263929605,1.10459435,0.156402731,0.215053773,0.391006832,0.430107546,0.342130995
0.087976542,0.068426199,0.205278587,0.439882708,0.3030303,0.078201365,0.078201365,0.244379282,1.45650053,0.087976542,0.3030303,0.087976542,0.068426199,0.3030303,1.173020482,0.166177917,0.195503416,0.391006832,0.410557175,0.332355833
0.087976542,0.078201365,0.205278587,0.391006832,0.342130995,0.068426199,0.078201365,0.273704791,1.476050854,0.107526886,0.361681342,0.107526886,0.068426199,0.322580624,1.114369512,0.156402731,0.185728254,0.371456504,0.38123167,0.342130995
0.087976542,0.078201365,0.205278587,0.322580624,0.293255119,0.068426199,0.068426199,0.293255119,1.348973632,0.127077222,0.361681342,0.117302048,0.068426199,0.332355833,1.270772219,0.166177917,0.205278587,0.38123167,0.439882708,0.322580624
0.087976542,0.078201365,0.205278587,0.273704791,0.332355833,0.068426199,0.078201365,0.3030303,1.202346087,0.136852396,0.391006832,0.117302048,0.068426199,0.361681342,1.348973632,0.175953078,0.195503416,0.351906157,0.410557175,0.322580624
0.087976542,0.078201365,0.215053773,0.273704791,0.312805462,0.068426199,0.078201365,0.273704791,1.251221895,0.117302048,0.400782013,0.127077222,0.078201365,0.420332336,1.270772219,0.185728254,0.195503416,0.361681342,0.420332336,0.3030303
0.078201365,0.078201365,0.205278587,0.263929605,0.332355833,0.068426199,0.078201365,0.254154444,1.153470159,0.097751703,0.420332336,0.107526886,0.087976542,0.391006832,1.22189641,0.195503416,0.185728254,0.391006832,0.430107546,0.312805462
0.078201365,0.068426199,0.195503416,0.283479958,0.361681342,0.068426199,0.078201365,0.283479958,1.016617775,0.078201365,0.459433031,0.127077222,0.097751703,0.420332336,1.407624626,0.224828935,0.185728254,0.38123167,0.439882708,0.293255119
0.078201365,0.068426199,0.185728254,0.273704791,0.391006832,0.068426199,0.068426199,0.263929605,0.918866062,0.068426199,0.488758564,0.156402731,0.107526886,0.430107546,1.270772219,0.215053773,0.156402731,0.361681342,0.478983355,0.322580624
0.078201365,0.068426199,0.185728254,0.234604096,0.391006832,0.068426199,0.068426199,0.263929605,0.811339188,0.058651023,0.518084049,0.185728254,0.117302048,0.459433031,1.241446733,0.224828935,0.195503416,0.351906157,0.498533726,0.312805462
0.087976542,0.078201365,0.195503416,0.205278587,0.371456504,0.068426199,0.068426199,0.312805462,0.733137846,0.058651023,0.459433031,0.195503416,0.117302048,0.430107546,1.192570925,0.234604096,0.185728254,0.351906157,0.547409582,0.3030303
0.097751703,0.078201365,0.185728254,0.195503416,0.400782013,0.068426199,0.068426199,0.3030303,0.713587475,0.048875852,0.430107546,0.185728254,0.127077222,0.469208193,1.153470159,0.234604096,0.175953078,0.430107546,0.53763442,0.3030303
0.097751703,0.078201365,0.175953078,0.205278587,0.38123167,0.068426199,0.068426199,0.391006832,0.674486828,0.058651023,0.391006832,0.175953078,0.117302048,0.576735067,1.055718422,0.244379282,0.166177917,0.420332336,0.518084049,0.3030303
0.097751703,0.078201365,0.175953078,0.254154444,0.410557175,0.068426199,0.068426199,0.439882708,0.674486828,0.058651023,0.371456504,0.166177917,0.117302048,0.566959906,0.98729229,0.224828935,0.175953078,0.439882708,0.478983355,0.371456504
0.097751703,0.078201365,0.185728254,0.273704791,0.459433031,0.068426199,0.068426199,0.420332336,0.615835762,0.068426199,0.361681342,0.156402731,0.097751703,0.586510229,0.918866062,0.224828935,0.156402731,0.430107546,0.488758564,0.361681342
0.097751703,0.078201365,0.195503416,0.3030303,0.566959906,0.068426199,0.078201365,0.488758564,0.53763442,0.058651023,0.312805462,0.136852396,0.14662756,0.576735067,0.821114349,0.215053773,0.166177917,0.391006832,0.478983355,0.361681342
0.097751703,0.078201365,0.205278587,0.322580624,0.527859211,0.068426199,0.068426199,0.498533726,0.478983355,0.058651023,0.332355833,0.127077222,0.175953078,0.576735067,0.762463331,0.215053773,0.166177917,0.38123167,0.420332336,0.361681342
0.097751703,0.078201365,0.195503416,0.293255119,0.557184744,0.068426199,0.078201365,0.625610924,0.478983355,0.068426199,0.459433031,0.156402731,0.195503416,0.557184744,0.68426199,0.234604096,0.175953078,0.371456504,0.371456504,0.332355833
0.107526886,0.078201365,0.185728254,0.273704791,0.6060606,0.068426199,0.078201365,0.762463331,0.400782013,0.068426199,0.430107546,0.185728254,0.224828935,0.635386086,0.645161247,0.224828935,0.166177917,0.351906157,0.371456504,0.3030303
0.097751703,0.068426199,0.175953078,0.254154444,0.645161247,0.078201365,0.078201365,0.899315739,0.351906157,0.068426199,0.410557175,0.175953078,0.234604096,0.635386086,0.674486828,0.234604096,0.156402731,0.322580624,0.391006832,0.312805462
0.087976542,0.078201365,0.185728254,0.244379282,0.664711666,0.068426199,0.078201365,0.9090909,0.351906157,0.058651023,0.371456504,0.195503416,0.234604096,0.664711666,0.615835762,0.254154444,0.166177917,0.293255119,0.371456504,0.3030303
0.087976542,0.078201365,0.185728254,0.254154444,0.6060606,0.068426199,0.087976542,0.821114349,0.322580624,0.058651023,0.391006832,0.205278587,0.254154444,0.811339188,0.635386086,0.234604096,0.14662756,0.312805462,0.342130995,0.293255119
0.087976542,0.078201365,0.195503416,0.254154444,0.703812313,0.068426199,0.087976542,0.918866062,0.332355833,0.058651023,0.469208193,0.195503416,0.254154444,1.04594326,0.645161247,0.234604096,0.14662756,0.3030303,0.342130995,0.312805462
0.097751703,0.078201365,0.185728254,0.244379282,0.664711666,0.068426199,0.107526886,0.928641224,0.371456504,0.058651023,0.439882708,0.224828935,0.263929605,1.124144673,0.615835762,0.263929605,0.156402731,0.283479958,0.312805462,0.312805462
0.087976542,0.078201365,0.195503416,0.234604096,0.664711666,0.068426199,0.107526886,0.879765415,0.361681342,0.058651023,0.420332336,0.263929605,0.293255119,1.212121248,0.53763442,0.254154444,0.175953078,0.263929605,0.342130995,0.322580624
0.087976542,0.078201365,0.185728254,0.224828935,0.654936409,0.068426199,0.127077222,0.840664673,0.361681342,0.048875852,0.439882708,0.312805462,0.351906157,1.524926662,0.518084049,0.263929605,0.166177917,0.273704791,0.361681342,0.371456504
0.087976542,0.078201365,0.195503416,0.244379282,0.811339188,0.068426199,0.117302048,0.899315739,0.371456504,0.058651023,0.400782013,0.342130995,0.342130995,1.710654974,0.488758564,0.273704791,0.156402731,0.273704791,0.322580624,0.342130995
0.087976542,0.078201365,0.195503416,0.234604096,1.006842613,0.068426199,0.117302048,0.9090909,0.371456504,0.068426199,0.391006832,0.361681342,0.332355833,1.681329346,0.439882708,0.244379282,0.156402731,0.263929605,0.3030303,0.361681342
0.097751703,0.078201365,0.175953078,0.215053773,0.98729229,0.068426199,0.107526886,0.957966709,0.400782013,0.078201365,0.430107546,0.371456504,0.361681342,1.827957058,0.391006832,0.244379282,0.156402731,0.244379282,0.293255119,0.400782013
0.087976542,0.078201365,0.175953078,0.234604096,0.977517128,0.068426199,0.097751703,0.957966709,0.488758564,0.087976542,0.53763442,0.332355833,0.439882708,1.700879812,0.371456504,0.254154444,0.14662756,0.215053773,0.273704791,0.410557175
0.087976542,0.078201365,0.166177917,0.244379282,0.918866062,0.068426199,0.107526886,0.948191547,0.478983355,0.087976542,0.557184744,0.410557175,0.439882708,1.524926662,0.332355833,0.263929605,0.14662756,0.185728254,0.263929605,0.391006832
0.078201365,0.078201365,0.175953078,0.263929605,0.918866062,0.068426199,0.107526886,0.997067451,0.439882708,0.078201365,0.557184744,0.459433031,0.410557175,1.505376339,0.312805462,0.312805462,0.14662756,0.166177917,0.263929605,0.38123167
0.087976542,0.078201365,0.166177917,0.283479958,0.938416386,0.068426199,0.097751703,1.085044022,0.420332336,0.068426199,0.615835762,0.518084049,0.400782013,1.710654974,0.273704791,0.283479958,0.14662756,0.14662756,0.263929605,0.371456504
0.087976542,0.078201365,0.156402731,0.293255119,0.957966709,0.068426199,0.107526886,1.436950111,0.410557175,0.058651023,0.596285439,0.518084049,0.410557175,1.661779022,0.293255119,0.273704791,0.14662756,0.166177917,0.293255119,0.351906157
0.087976542,0.078201365,0.156402731,0.3030303,1.133919835,0.068426199,0.097751703,1.466275692,0.38123167,0.058651023,0.576735067,0.694037151,0.38123167,1.515151501,0.293255119,0.263929605,0.14662756,0.156402731,0.293255119,0.371456504
0.087976542,0.087976542,0.14662756,0.342130995,1.260997057,0.068426199,0.087976542,1.436950111,0.371456504,0.078201365,0.508308887,0.840664673,0.38123167,1.319648147,0.263929605,0.244379282,0.136852396,0.156402731,0.263929605,0.342130995
0.097751703,0.078201365,0.166177917,0.361681342,1.309872866,0.068426199,0.097751703,1.417399788,0.351906157,0.068426199,0.53763442,0.791788864,0.430107546,1.290322542,0.273704791,0.234604096,0.14662756,0.136852396,0.293255119,0.351906157
0.087976542,0.078201365,0.166177917,0.361681342,1.28054738,0.068426199,0.097751703,1.681329346,0.351906157,0.078201365,0.53763442,0.821114349,0.498533726,1.231671572,0.273704791,0.244379282,0.136852396,0.14662756,0.293255119,0.361681342
0.097751703,0.087976542,0.166177917,0.459433031,1.681329346,0.068426199,0.097751703,1.583577728,0.361681342,0.097751703,0.625610924,0.801564026,0.53763442,1.075268865,0.263929605,0.234604096,0.136852396,0.156402731,0.283479958,0.342130995
0.097751703,0.097751703,0.166177917,0.459433031,1.59335289,0.068426199,0.087976542,1.876832867,0.361681342,0.117302048,0.694037151,0.840664673,0.694037151,1.368523955,0.263929605,0.244379282,0.127077222,0.14662756,0.273704791,0.342130995
0.097751703,0.097751703,0.156402731,0.449657869,1.495601177,0.068426199,0.107526886,2.043010712,0.351906157,0.117302048,0.762463331,0.85043993,0.772238493,1.407624626,0.244379282,0.234604096,0.117302048,0.14662756,0.254154444,0.371456504
0.087976542,0.097751703,0.156402731,0.518084049,1.554252148,0.068426199,0.127077222,1.935483837,0.371456504,0.127077222,0.703812313,0.918866062,0.889540577,1.417399788,0.254154444,0.224828935,0.107526886,0.127077222,0.234604096,0.342130995
0.087976542,0.097751703,0.156402731,0.664711666,1.466275692,0.068426199,0.117302048,1.89638319,0.342130995,0.156402731,0.635386086,0.948191547,0.860215092,1.407624626,0.293255119,0.224828935,0.117302048,0.136852396,0.224828935,0.332355833
0.097751703,0.097751703,0.156402731,0.811339188,1.603128052,0.068426199,0.127077222,1.749755621,0.332355833,0.156402731,0.635386086,0.85043993,0.85043993,1.22189641,0.439882708,0.254154444,0.107526886,0.14662756,0.215053773,0.3030303
0.087976542,0.097751703,0.14662756,0.782013655,1.779081106,0.068426199,0.127077222,1.915933514,0.342130995,0.156402731,0.615835762,0.85043993,0.752688169,1.094819183,0.420332336,0.234604096,0.107526886,0.14662756,0.224828935,0.3030303
0.087976542,0.107526886,0.166177917,0.694037151,2.03323555,0.068426199,0.117302048,1.769305944,0.312805462,0.175953078,0.576735067,0.772238493,0.840664673,1.006842613,0.469208193,0.224828935,0.107526886,0.156402731,0.215053773,0.273704791
0.087976542,0.107526886,0.166177917,0.821114349,2.316715479,0.068426199,0.127077222,1.769305944,0.351906157,0.185728254,0.713587475,0.830889511,0.860215092,0.938416386,0.459433031,0.234604096,0.107526886,0.14662756,0.234604096,0.263929605
0.087976542,0.087976542,0.156402731,0.821114349,2.434017658,0.068426199,0.136852396,2.003910065,0.400782013,0.185728254,0.615835762,0.830889511,0.899315739,0.811339188,0.508308887,0.244379282,0.117302048,0.166177917,0.234604096,0.254154444
0.087976542,0.087976542,0.175953078,0.830889511,2.238514185,0.078201365,0.127077222,2.130987406,0.449657869,0.185728254,0.586510229,0.811339188,0.928641224,0.723362684,0.508308887,0.254154444,0.117302048,0.175953078,0.205278587,0.273704791
0.097751703,0.087976542,0.166177917,0.801564026,2.062561035,0.078201365,0.127077222,1.955034256,0.459433031,0.185728254,0.674486828,0.967741871,0.889540577,0.733137846,0.508308887,0.263929605,0.107526886,0.224828935,0.215053773,0.263929605
0.097751703,0.097751703,0.175953078,0.742913008,2.248289347,0.068426199,0.117302048,1.867057705,0.478983355,0.195503416,0.674486828,1.300097704,0.899315739,0.654936409,0.53763442,0.263929605,0.097751703,0.263929605,0.205278587,0.273704791
0.097751703,0.097751703,0.166177917,0.801564026,2.492668629,0.068426199,0.127077222,1.83773222,0.469208193,0.205278587,0.645161247,1.524926662,0.948191547,0.586510229,0.478983355,0.273704791,0.107526886,0.244379282,0.224828935,0.312805462
0.097751703,0.107526886,0.175953078,0.772238493,2.326490641,0.078201365,0.107526886,1.808406639,0.420332336,0.205278587,0.576735067,1.42717495,1.04594326,0.557184744,0.576735067,0.283479958,0.107526886,0.224828935,0.244379282,0.283479958
0.097751703,0.097751703,0.166177917,0.860215092,2.561094761,0.068426199,0.117302048,1.749755621,0.439882708,0.195503416,0.527859211,1.378299117,1.006842613,0.557184744,0.6060606,0.273704791,0.107526886,0.195503416,0.215053773,0.273704791
0.097751703,0.097751703,0.175953078,0.791788864,2.67839694,0.068426199,0.107526886,1.759530783,0.400782013,0.244379282,0.488758564,1.495601177,0.967741871,0.518084049,0.6060606,0.254154444,0.107526886,0.205278587,0.224828935,0.3030303
0.097751703,0.107526886,0.166177917,0.733137846,2.658846617,0.068426199,0.107526886,1.710654974,0.351906157,0.293255119,0.53763442,1.564027309,1.192570925,0.478983355,0.596285439,0.263929605,0.117302048,0.205278587,0.234604096,0.332355833
0.097751703,0.097751703,0.166177917,0.742913008,2.688172102,0.068426199,0.117302048,1.671554184,0.351906157,0.283479958,0.557184744,1.612903214,1.173020482,0.459433031,0.557184744,0.254154444,0.117302048,0.185728254,0.215053773,0.351906157
0.107526886,0.107526886,0.156402731,0.694037151,2.903225899,0.068426199,0.14662756,1.759530783,0.342130995,0.293255119,0.527859211,1.534701824,1.173020482,0.508308887,0.527859211,0.273704791,0.127077222,0.185728254,0.254154444,0.342130995
0.127077222,0.097751703,0.156402731,0.723362684,3.030303001,0.068426199,0.14662756,1.808406639,0.332355833,0.3030303,0.527859211,1.632453537,1.10459435,0.498533726,0.518084049,0.263929605,0.14662756,0.175953078,0.254154444,0.322580624
0.127077222,0.097751703,0.166177917,0.9090909,2.854349899,0.068426199,0.127077222,1.857282543,0.332355833,0.322580624,0.488758564,1.436950111,1.065493703,0.586510229,0.576735067,0.254154444,0.14662756,0.185728254,0.244379282,0.312805462
0.136852396,0.097751703,0.185728254,0.869990253,2.805474091,0.078201365,0.136852396,1.906158352,0.342130995,0.332355833,0.478983355,1.329423308,1.016617775,0.53763442,0.547409582,0.234604096,0.156402731,0.166177917,0.234604096,0.342130995
0.136852396,0.097751703,0.185728254,0.811339188,2.512218952,0.078201365,0.117302048,1.984359741,0.322580624,0.351906157,0.439882708,1.309872866,0.889540577,0.635386086,0.53763442,0.224828935,0.156402731,0.175953078,0.215053773,0.312805462
0.127077222,0.097751703,0.185728254,0.733137846,2.414467335,0.078201365,0.127077222,1.955034256,0.371456504,0.361681342,0.439882708,1.212121248,0.752688169,0.557184744,0.527859211,0.234604096,0.156402731,0.205278587,0.224828935,0.293255119
0.166177917,0.097751703,0.185728254,0.742913008,2.346040964,0.068426199,0.136852396,1.788856268,0.361681342,0.420332336,0.439882708,1.22189641,0.694037151,0.596285439,0.498533726,0.224828935,0.156402731,0.254154444,0.234604096,0.273704791
0.185728254,0.097751703,0.185728254,0.782013655,2.649071455,0.068426199,0.136852396,1.505376339,0.332355833,0.430107546,0.459433031,1.241446733,0.596285439,0.596285439,0.498533726,0.215053773,0.166177917,0.263929605,0.215053773,0.283479958
0.215053773,0.087976542,0.185728254,0.782013655,2.658846617,0.068426199,0.127077222,1.358748794,0.332355833,0.430107546,0.430107546,1.251221895,0.498533726,0.527859211,0.576735067,0.215053773,0.175953078,0.244379282,0.244379282,0.263929605
0.185728254,0.087976542,0.175953078,0.889540577,2.531769276,0.068426199,0.117302048,1.182795639,0.3030303,0.459433031,0.478983355,1.378299117,0.439882708,0.488758564,0.557184744,0.205278587,0.175953078,0.254154444,0.254154444,0.283479958
0.215053773,0.087976542,0.185728254,0.85043993,2.541544437,0.068426199,0.117302048,0.98729229,0.3030303,0.469208193,0.439882708,1.251221895,0.391006832,0.449657869,0.576735067,0.195503416,0.215053773,0.293255119,0.263929605,0.273704791
0.205278587,0.087976542,0.185728254,0.860215092,2.658846617,0.068426199,0.117302048,0.860215092,0.283479958,0.410557175,0.478983355,1.446725368,0.351906157,0.430107546,0.498533726,0.175953078,0.234604096,0.254154444,0.244379282,0.254154444
0.254154444,0.087976542,0.195503416,0.801564026,2.795698881,0.068426199,0.107526886,0.742913008,0.293255119,0.518084049,0.459433031,1.505376339,0.3030303,0.430107546,0.547409582,0.175953078,0.254154444,0.215053773,0.234604096,0.234604096
0.224828935,0.087976542,0.205278587,0.830889511,2.473118305,0.068426199,0.107526886,0.664711666,0.293255119,0.654936409,0.430107546,1.739980459,0.283479958,0.420332336,0.625610924,0.175953078,0.244379282,0.234604096,0.234604096,0.263929605
0.224828935,0.087976542,0.205278587,0.85043993,2.287389994,0.068426199,0.127077222,0.586510229,0.273704791,0.762463331,0.410557175,1.827957058,0.283479958,0.478983355,0.586510229,0.215053773,0.244379282,0.254154444,0.215053773,0.283479958
0.215053773,0.087976542,0.185728254,0.811339188,2.218963861,0.068426199,0.127077222,0.518084049,0.293255119,0.68426199,0.400782013,1.876832867,0.283479958,0.449657869,0.53763442,0.215053773,0.273704791,0.234604096,0.205278587,0.273704791
0.234604096,0.078201365,0.195503416,0.762463331,2.023460388,0.068426199,0.127077222,0.439882708,0.3030303,0.654936409,0.596285439,1.739980459,0.283479958,0.498533726,0.527859211,0.195503416,0.283479958,0.185728254,0.195503416,0.3030303
0.215053773,0.087976542,0.185728254,0.733137846,1.749755621,0.068426199,0.127077222,0.371456504,0.283479958,0.772238493,0.654936409,1.642228699,0.263929605,0.53763442,0.508308887,0.195503416,0.312805462,0.185728254,0.195503416,0.3030303
0.224828935,0.078201365,0.195503416,0.791788864,1.524926662,0.068426199,0.127077222,0.312805462,0.263929605,0.85043993,0.664711666,1.534701824,0.254154444,0.527859211,0.518084049,0.185728254,0.3030303,0.166177917,0.205278587,0.312805462
0.234604096,0.078201365,0.185728254,0.703812313,1.270772219,0.068426199,0.117302048,0.283479958,0.312805462,0.801564026,0.68426199,1.505376339,0.283479958,0.527859211,0.527859211,0.195503416,0.283479958,0.14662756,0.215053773,0.283479958
0.224828935,0.087976542,0.185728254,0.772238493,1.124144673,0.068426199,0.136852396,0.234604096,0.283479958,0.889540577,0.674486828,1.42717495,0.283479958,0.53763442,0.576735067,0.224828935,0.293255119,0.136852396,0.205278587,0.293255119
0.234604096,0.087976542,0.175953078,0.713587475,0.997067451,0.068426199,0.127077222,0.224828935,0.244379282,1.133919835,0.6060606,1.388074284,0.283479958,0.488758564,0.527859211,0.205278587,0.312805462,0.136852396,0.205278587,0.283479958
0.215053773,0.087976542,0.166177917,0.635386086,0.821114349,0.068426199,0.14662756,0.195503416,0.244379282,1.446725368,0.547409582,1.378299117,0.293255119,0.478983355,0.478983355,0.215053773,0.332355833,0.136852396,0.224828935,0.3030303
0.205278587,0.078201365,0.166177917,0.625610924,0.694037151,0.058651023,0.14662756,0.175953078,0.224828935,1.573802567,0.596285439,1.202346087,0.351906157,0.459433031,0.459433031,0.224828935,0.361681342,0.127077222,0.195503416,0.312805462
0.244379282,0.087976542,0.175953078,0.615835762,0.645161247,0.068426199,0.156402731,0.14662756,0.224828935,1.534701824,0.576735067,1.094819183,0.342130995,0.420332336,0.420332336,0.215053773,0.391006832,0.14662756,0.215053773,0.293255119
0.342130995,0.078201365,0.175953078,0.596285439,0.586510229,0.068426199,0.14662756,0.127077222,0.244379282,1.476050854,0.518084049,1.026392937,0.351906157,0.38123167,0.420332336,0.234604096,0.439882708,0.166177917,0.205278587,0.293255119
0.332355833,0.087976542,0.224828935,0.586510229,0.518084049,0.068426199,0.166177917,0.117302048,0.244379282,1.524926662,0.469208193,1.085044022,0.400782013,0.430107546,0.459433031,0.224828935,0.53763442,0.185728254,0.215053773,0.293255119
0.391006832,0.078201365,0.215053773,0.53763442,0.469208193,0.078201365,0.156402731,0.117302048,0.234604096,1.671554184,0.498533726,1.04594326,0.38123167,0.478983355,0.449657869,0.224828935,0.53763442,0.195503416,0.205278587,0.293255119
0.420332336,0.078201365,0.215053773,0.566959906,0.439882708,0.068426199,0.166177917,0.117302048,0.234604096,1.671554184,0.469208193,0.899315739,0.371456504,0.459433031,0.391006832,0.224828935,0.53763442,0.195503416,0.244379282,0.312805462
0.439882708,0.078201365,0.215053773,0.625610924,0.410557175,0.078201365,0.14662756,0.136852396,0.234604096,1.573802567,0.498533726,0.733137846,0.322580624,0.576735067,0.371456504,0.234604096,0.527859211,0.293255119,0.254154444,0.3030303
0.439882708,0.087976542,0.195503416,0.596285439,0.410557175,0.068426199,0.156402731,0.14662756,0.263929605,1.466275692,0.518084049,0.596285439,0.3030303,0.654936409,0.400782013,0.205278587,0.566959906,0.273704791,0.293255119,0.283479958
0.459433031,0.087976542,0.195503416,0.527859211,0.400782013,0.068426199,0.166177917,0.136852396,0.283479958,1.59335289,0.449657869,0.478983355,0.3030303,0.645161247,0.38123167,0.215053773,0.566959906,0.312805462,0.283479958,0.283479958
0.469208193,0.087976542,0.195503416,0.498533726,0.342130995,0.068426199,0.175953078,0.14662756,0.263929605,1.583577728,0.400782013,0.391006832,0.332355833,0.6060606,0.351906157,0.215053773,0.6060606,0.342130995,0.342130995,0.312805462
0.518084049,0.087976542,0.205278587,0.478983355,0.351906157,0.068426199,0.166177917,0.185728254,0.293255119,1.749755621,0.38123167,0.322580624,0.38123167,0.576735067,0.342130995,0.195503416,0.625610924,0.351906157,0.361681342,0.322580624
0.645161247,0.097751703,0.195503416,0.449657869,0.342130995,0.068426199,0.166177917,0.224828935,0.254154444,1.769305944,0.38123167,0.263929605,0.342130995,0.645161247,0.342130995,0.195503416,0.664711666,0.361681342,0.322580624,0.283479958
0.762463331,0.087976542,0.195503416,0.459433031,0.351906157,0.068426199,0.14662756,0.224828935,0.234604096,1.642228699,0.439882708,0.215053773,0.332355833,0.645161247,0.312805462,0.185728254,0.654936409,0.342130995,0.332355833,0.273704791
0.742913008,0.097751703,0.185728254,0.449657869,0.527859211,0.068426199,0.156402731,0.312805462,0.205278587,1.495601177,0.400782013,0.195503416,0.322580624,0.713587475,0.312805462,0.185728254,0.713587475,0.400782013,0.312805462,0.263929605
0.811339188,0.087976542,0.185728254,0.410557175,0.547409582,0.068426199,0.185728254,0.342130995,0.215053773,1.554252148,0.410557175,0.175953078,0.332355833,0.811339188,0.342130995,0.166177917,0.713587475,0.361681342,0.273704791,0.254154444
0.85043993,0.087976542,0.166177917,0.38123167,0.664711666,0.058651023,0.185728254,0.391006832,0.215053773,1.388074284,0.391006832,0.166177917,0.3030303,0.713587475,0.332355833,0.156402731,0.703812313,0.371456504,0.254154444,0.254154444
0.869990253,0.078201365,0.156402731,0.391006832,0.791788864,0.068426199,0.156402731,0.430107546,0.195503416,1.28054738,0.38123167,0.166177917,0.322580624,0.674486828,0.312805462,0.156402731,0.723362684,0.361681342,0.263929605,0.273704791
0.918866062,0.078201365,0.156402731,0.371456504,0.713587475,0.068426199,0.166177917,0.469208193,0.195503416,1.446725368,0.38123167,0.14662756,0.410557175,0.635386086,0.293255119,0.166177917,0.703812313,0.3030303,0.244379282,0.273704791
0.889540577,0.078201365,0.166177917,0.342130995,0.625610924,0.068426199,0.205278587,0.459433031,0.195503416,1.378299117,0.38123167,0.14662756,0.439882708,0.645161247,0.263929605,0.175953078,0.762463331,0.254154444,0.244379282,0.244379282
0.899315739,0.078201365,0.166177917,0.351906157,0.694037151,0.078201365,0.195503416,0.478983355,0.185728254,1.348973632,0.38123167,0.136852396,0.420332336,0.557184744,0.263929605,0.175953078,0.948191547,0.215053773,0.254154444,0.215053773
0.889540577,0.078201365,0.166177917,0.459433031,0.733137846,0.068426199,0.185728254,0.430107546,0.195503416,1.348973632,0.391006832,0.117302048,0.371456504,0.527859211,0.283479958,0.175953078,0.938416386,0.175953078,0.254154444,0.224828935
0.928641224,0.068426199,0.166177917,0.547409582,0.713587475,0.078201365,0.195503416,0.351906157,0.185728254,1.28054738,0.38123167,0.107526886,0.361681342,0.518084049,0.263929605,0.175953078,0.928641224,0.156402731,0.254154444,0.224828935
1.026392937,0.078201365,0.14662756,0.508308887,0.938416386,0.078201365,0.215053773,0.312805462,0.175953078,1.290322542,0.351906157,0.097751703,0.332355833,0.488758564,0.244379282,0.166177917,0.948191547,0.136852396,0.224828935,0.234604096
1.016617775,0.068426199,0.166177917,0.449657869,1.085044022,0.068426199,0.224828935,0.332355833,0.175953078,1.133919835,0.351906157,0.107526886,0.332355833,0.420332336,0.234604096,0.166177917,0.9090909,0.127077222,0.215053773,0.244379282
1.016617775,0.068426199,0.166177917,0.400782013,1.251221895,0.068426199,0.195503416,0.342130995,0.156402731,1.075268865,0.371456504,0.107526886,0.3030303,0.430107546,0.244379282,0.175953078,1.036168098,0.156402731,0.215053773,0.244379282
1.065493703,0.068426199,0.185728254,0.361681342,1.143694997,0.068426199,0.244379282,0.351906157,0.14662756,0.948191547,0.38123167,0.136852396,0.312805462,0.488758564,0.234604096,0.166177917,1.055718422,0.175953078,0.254154444,0.254154444
1.22189641,0.078201365,0.185728254,0.371456504,1.22189641,0.068426199,0.263929605,0.332355833,0.136852396,0.811339188,0.430107546,0.136852396,0.332355833,0.518084049,0.224828935,0.156402731,1.22189641,0.156402731,0.244379282,0.234604096
1.290322542,0.068426199,0.185728254,0.342130995,1.348973632,0.068426199,0.263929605,0.351906157,0.136852396,0.772238493,0.391006832,0.195503416,0.342130995,0.469208193,0.215053773,0.166177917,1.124144673,0.136852396,0.254154444,0.215053773
1.495601177,0.068426199,0.205278587,0.332355833,1.417399788,0.068426199,0.283479958,0.351906157,0.117302048,0.694037151,0.361681342,0.195503416,0.322580624,0.527859211,0.224828935,0.156402731,1.182795639,0.127077222,0.263929605,0.224828935
1.788856268,0.068426199,0.215053773,0.332355833,1.505376339,0.068426199,0.3030303,0.342130995,0.136852396,0.762463331,0.332355833,0.244379282,0.3030303,0.53763442,0.224828935,0.156402731,1.16324532,0.127077222,0.244379282,0.254154444
1.720430136,0.068426199,0.205278587,0.322580624,1.358748794,0.068426199,0.283479958,0.342130995,0.127077222,0.733137846,0.312805462,0.293255119,0.312805462,0.469208193,0.234604096,0.156402731,1.173020482,0.107526886,0.254154444,0.254154444
1.827957058,0.068426199,0.205278587,0.38123167,1.329423308,0.068426199,0.312805462,0.351906157,0.127077222,0.742913008,0.293255119,0.293255119,0.293255119,0.410557175,0.234604096,0.14662756,1.241446733,0.107526886,0.254154444,0.234604096
1.739980459,0.068426199,0.205278587,0.38123167,1.632453537,0.068426199,0.322580624,0.430107546,0.127077222,0.68426199,0.263929605,0.293255119,0.293255119,0.488758564,0.215053773,0.14662756,1.10459435,0.156402731,0.273704791,0.224828935
2.03323555,0.068426199,0.205278587,0.391006832,1.759530783,0.068426199,0.351906157,0.410557175,0.127077222,0.664711666,0.3030303,0.371456504,0.273704791,0.527859211,0.215053773,0.14662756,1.143694997,0.175953078,0.283479958,0.215053773
2.170088053,0.078201365,0.215053773,0.410557175,1.642228699,0.068426199,0.420332336,0.430107546,0.117302048,0.6060606,0.3030303,0.508308887,0.283479958,0.527859211,0.215053773,0.14662756,1.133919835,0.156402731,0.322580624,0.205278587
2.238514185,0.078201365,0.205278587,0.410557175,1.564027309,0.078201365,0.410557175,0.410557175,0.117302048,0.635386086,0.312805462,0.527859211,0.293255119,0.459433031,0.215053773,0.136852396,1.075268865,0.136852396,0.332355833,0.205278587
2.375366449,0.087976542,0.205278587,0.38123167,1.524926662,0.078201365,0.391006832,0.430107546,0.107526886,0.615835762,0.283479958,0.498533726,0.342130995,0.488758564,0.224828935,0.136852396,0.98729229,0.127077222,0.332355833,0.195503416
2.306940317,0.078201365,0.185728254,0.351906157,1.329423308,0.078201365,0.430107546,0.557184744,0.127077222,0.625610924,0.3030303,0.459433031,0.312805462,0.518084049,0.215053773,0.14662756,0.879765415,0.127077222,0.400782013,0.195503416
2.258064508,0.078201365,0.185728254,0.322580624,1.22189641,0.078201365,0.420332336,0.860215092,0.127077222,0.566959906,0.293255119,0.478983355,0.293255119,0.459433031,0.205278587,0.166177917,0.762463331,0.107526886,0.625610924,0.195503416
2.277614832,0.087976542,0.185728254,0.332355833,1.124144673,0.078201365,0.420332336,0.938416386,0.127077222,0.566959906,0.342130995,0.469208193,0.283479958,0.439882708,0.185728254,0.175953078,0.654936409,0.097751703,0.654936409,0.205278587
2.218963861,0.087976542,0.185728254,0.293255119,1.143694997,0.078201365,0.420332336,0.9090909,0.107526886,0.557184744,0.361681342,0.53763442,0.283479958,0.391006832,0.185728254,0.175953078,0.615835762,0.107526886,0.68426199,0.195503416
2.531769276,0.078201365,0.185728254,0.293255119,1.133919835,0.078201365,0.410557175,0.840664673,0.097751703,0.508308887,0.391006832,0.635386086,0.293255119,0.391006832,0.205278587,0.166177917,0.547409582,0.117302048,0.664711666,0.185728254
2.336265802,0.078201365,0.166177917,0.332355833,1.143694997,0.078201365,0.371456504,0.733137846,0.087976542,0.596285439,0.430107546,0.664711666,0.263929605,0.459433031,0.195503416,0.166177917,0.469208193,0.117302048,0.635386086,0.185728254
2.473118305,0.078201365,0.156402731,0.332355833,1.16324532,0.068426199,0.400782013,0.840664673,0.087976542,0.547409582,0.420332336,0.596285439,0.273704791,0.410557175,0.195503416,0.175953078,0.420332336,0.117302048,0.615835762,0.185728254
2.727272749,0.078201365,0.156402731,0.322580624,1.124144673,0.068426199,0.469208193,0.860215092,0.078201365,0.518084049,0.459433031,0.664711666,0.263929605,0.400782013,0.195503416,0.166177917,0.400782013,0.14662756,0.645161247,0.185728254
2.688172102,0.078201365,0.156402731,0.3030303,1.04594326,0.078201365,0.459433031,0.830889511,0.068426199,0.664711666,0.478983355,0.674486828,0.244379282,0.371456504,0.195503416,0.166177917,0.38123167,0.156402731,0.713587475,0.175953078
2.463343143,0.078201365,0.166177917,0.273704791,0.938416386,0.068426199,0.410557175,0.762463331,0.087976542,0.625610924,0.488758564,0.615835762,0.215053773,0.371456504,0.215053773,0.166177917,0.342130995,0.195503416,0.68426199,0.175953078
2.26783967,0.078201365,0.156402731,0.263929605,0.811339188,0.068426199,0.371456504,0.801564026,0.087976542,0.6060606,0.576735067,0.68426199,0.215053773,0.391006832,0.205278587,0.166177917,0.351906157,0.234604096,0.742913008,0.185728254
2.121212006,0.078201365,0.156402731,0.244379282,0.899315739,0.068426199,0.391006832,0.733137846,0.087976542,0.615835762,0.625610924,0.762463331,0.215053773,0.342130995,0.195503416,0.166177917,0.312805462,0.244379282,0.674486828,0.195503416
2.228739023,0.078201365,0.14662756,0.263929605,0.801564026,0.068426199,0.38123167,0.733137846,0.078201365,0.654936409,0.742913008,0.733137846,0.185728254,0.361681342,0.185728254,0.175953078,0.312805462,0.322580624,0.782013655,0.215053773
2.2091887,0.078201365,0.14662756,0.293255119,0.742913008,0.068426199,0.400782013,0.723362684,0.078201365,0.6060606,0.791788864,0.791788864,0.185728254,0.332355833,0.185728254,0.166177917,0.322580624,0.322580624,0.821114349,0.234604096
1.955034256,0.078201365,0.14662756,0.322580624,0.694037151,0.068426199,0.410557175,0.664711666,0.068426199,0.527859211,0.840664673,0.733137846,0.195503416,0.332355833,0.166177917,0.166177917,0.322580624,0.332355833,0.801564026,0.234604096
1.886608028,0.078201365,0.14662756,0.293255119,0.674486828,0.068426199,0.459433031,0.703812313,0.068426199,0.498533726,0.772238493,0.782013655,0.185728254,0.3030303,0.166177917,0.166177917,0.38123167,0.342130995,0.801564026,0.215053773
1.818181896,0.078201365,0.14662756,0.322580624,0.645161247,0.068426199,0.459433031,0.762463331,0.078201365,0.508308887,0.752688169,0.879765415,0.166177917,0.273704791,0.156402731,0.166177917,0.361681342,0.371456504,0.772238493,0.205278587
1.984359741,0.078201365,0.156402731,0.3030303,0.566959906,0.068426199,0.430107546,0.938416386,0.068426199,0.53763442,0.889540577,0.830889511,0.156402731,0.254154444,0.14662756,0.14662756,0.342130995,0.371456504,0.782013655,0.195503416
2.170088053,0.078201365,0.166177917,0.3030303,0.53763442,0.078201365,0.391006832,0.918866062,0.068426199,0.566959906,0.840664673,0.879765415,0.175953078,0.283479958,0.175953078,0.156402731,0.322580624,0.351906157,0.782013655,0.175953078
2.297165155,0.078201365,0.156402731,0.322580624,0.53763442,0.068426199,0.391006832,0.967741871,0.068426199,0.625610924,0.811339188,0.957966709,0.175953078,0.322580624,0.166177917,0.156402731,0.342130995,0.312805462,0.782013655,0.185728254
2.140762568,0.078201365,0.175953078,0.293255119,0.586510229,0.068426199,0.400782013,0.918866062,0.058651023,0.654936409,1.065493703,0.967741871,0.156402731,0.312805462,0.156402731,0.156402731,0.322580624,0.273704791,0.928641224,0.175953078
2.150537729,0.078201365,0.185728254,0.293255119,0.576735067,0.068426199,0.371456504,0.85043993,0.068426199,0.635386086,1.094819183,0.889540577,0.156402731,0.293255119,0.14662756,0.14662756,0.342130995,0.244379282,0.9090909,0.185728254
2.2091887,0.078201365,0.185728254,0.263929605,0.596285439,0.068426199,0.400782013,0.821114349,0.078201365,0.625610924,1.114369512,0.830889511,0.156402731,0.351906157,0.166177917,0.14662756,0.322580624,0.215053773,0.879765415,0.185728254
2.2091887,0.078201365,0.166177917,0.273704791,0.586510229,0.068426199,0.498533726,0.752688169,0.078201365,0.596285439,1.143694997,0.762463331,0.166177917,0.351906157,0.166177917,0.14662756,0.332355833,0.185728254,0.869990253,0.195503416
1.906158352,0.078201365,0.156402731,0.273704791,0.615835762,0.068426199,0.498533726,0.830889511,0.078201365,0.625610924,1.173020482,0.811339188,0.156402731,0.332355833,0.166177917,0.156402731,0.3030303,0.166177917,0.85043993,0.185728254
1.671554184,0.078201365,0.166177917,0.254154444,0.566959906,0.068426199,0.459433031,0.821114349,0.107526886,0.615835762,1.085044022,0.840664673,0.136852396,0.283479958,0.156402731,0.166177917,0.3030303,0.156402731,0.821114349,0.205278587
1.681329346,0.078201365,0.175953078,0.273704791,0.498533726,0.068426199,0.459433031,0.752688169,0.117302048,0.654936409,1.114369512,1.036168098,0.136852396,0.263929605,0.14662756,0.156402731,0.273704791,0.14662756,0.85043993,0.185728254
1.59335289,0.078201365,0.175953078,0.283479958,0.469208193,0.068426199,0.449657869,0.723362684,0.107526886,0.664711666,1.524926662,1.094819183,0.136852396,0.263929605,0.14662756,0.175953078,0.254154444,0.166177917,0.801564026,0.175953078
1.42717495,0.087976542,0.175953078,0.283479958,0.469208193,0.078201365,0.469208193,0.635386086,0.097751703,0.635386086,1.368523955,1.16324532,0.127077222,0.273704791,0.14662756,0.166177917,0.254154444,0.156402731,0.860215092,0.166177917
1.388074284,0.078201365,0.215053773,0.3030303,0.459433031,0.078201365,0.449657869,0.596285439,0.087976542,0.596285439,1.33919847,1.153470159,0.117302048,0.244379282,0.14662756,0.166177917,0.244379282,0.156402731,0.840664673,0.175953078
1.260997057,0.087976542,0.205278587,0.342130995,0.459433031,0.068426199,0.410557175,0.586510229,0.087976542,0.566959906,1.505376339,1.094819183,0.136852396,0.215053773,0.136852396,0.156402731,0.283479958,0.136852396,0.811339188,0.175953078
1.319648147,0.107526886,0.185728254,0.342130995,0.430107546,0.068426199,0.430107546,0.654936409,0.087976542,0.566959906,1.632453537,1.124144673,0.127077222,0.195503416,0.14662756,0.166177917,0.293255119,0.136852396,0.762463331,0.166177917
1.182795639,0.117302048,0.185728254,0.322580624,0.391006832,0.068426199,0.400782013,0.879765415,0.087976542,0.518084049,1.730205297,1.124144673,0.117302048,0.166177917,0.136852396,0.166177917,0.293255119,0.117302048,0.694037151,0.166177917
0.967741871,0.117302048,0.175953078,0.322580624,0.371456504,0.078201365,0.439882708,0.742913008,0.078201365,0.635386086,2.101661682,1.036168098,0.117302048,0.195503416,0.127077222,0.166177917,0.293255119,0.107526886,0.772238493,0.185728254
0.938416386,0.136852396,0.175953078,0.332355833,0.322580624,0.068426199,0.566959906,0.821114349,0.078201365,0.654936409,2.355816126,0.967741871,0.117302048,0.185728254,0.136852396,0.166177917,0.283479958,0.097751703,0.791788864,0.205278587
0.821114349,0.136852396,0.166177917,0.400782013,0.273704791,0.078201365,0.742913008,0.723362684,0.068426199,0.782013655,2.44379282,0.98729229,0.107526886,0.175953078,0.127077222,0.166177917,0.322580624,0.097751703,0.821114349,0.244379282
0.713587475,0.127077222,0.166177917,0.439882708,0.283479958,0.068426199,0.821114349,0.762463331,0.068426199,0.752688169,2.541544437,0.928641224,0.117302048,0.166177917,0.117302048,0.175953078,0.293255119,0.107526886,0.869990253,0.244379282
0.733137846,0.136852396,0.175953078,0.391006832,0.273704791,0.068426199,0.762463331,0.742913008,0.068426199,0.68426199,2.619745731,0.860215092,0.127077222,0.185728254,0.117302048,0.195503416,0.283479958,0.117302048,0.9090909,0.254154444
0.694037151,0.136852396,0.166177917,0.410557175,0.234604096,0.068426199,0.713587475,0.694037151,0.068426199,0.68426199,2.414467335,0.997067451,0.117302048,0.195503416,0.117302048,0.234604096,0.293255119,0.117302048,0.840664673,0.3030303
0.635386086,0.136852396,0.185728254,0.420332336,0.205278587,0.068426199,0.723362684,0.635386086,0.058651023,0.645161247,2.150537729,0.977517128,0.117302048,0.185728254,0.117302048,0.244379282,0.312805462,0.136852396,0.830889511,0.342130995
0.664711666,0.156402731,0.185728254,0.391006832,0.175953078,0.068426199,0.645161247,0.6060606,0.058651023,0.576735067,2.316715479,0.967741871,0.117302048,0.166177917,0.117302048,0.244379282,0.322580624,0.127077222,0.948191547,0.332355833
0.733137846,0.175953078,0.185728254,0.439882708,0.166177917,0.068426199,0.645161247,0.557184744,0.058651023,0.527859211,2.130987406,0.918866062,0.107526886,0.175953078,0.107526886,0.244379282,0.332355833,0.127077222,0.98729229,0.312805462
0.742913008,0.185728254,0.175953078,0.449657869,0.156402731,0.068426199,0.625610924,0.557184744,0.048875852,0.566959906,1.955034256,0.879765415,0.097751703,0.166177917,0.107526886,0.254154444,0.3030303,0.175953078,0.918866062,0.342130995
1.016617775,0.185728254,0.166177917,0.478983355,0.156402731,0.068426199,0.635386086,0.576735067,0.058651023,0.547409582,1.89638319,0.811339188,0.097751703,0.156402731,0.107526886,0.254154444,0.3030303,0.244379282,0.899315739,0.332355833
1.085044022,0.175953078,0.205278587,0.469208193,0.14662756,0.068426199,0.723362684,0.596285439,0.058651023,0.586510229,1.925708675,0.85043993,0.087976542,0.166177917,0.117302048,0.254154444,0.332355833,0.254154444,0.928641224,0.371456504
1.04594326,0.195503416,0.205278587,0.488758564,0.136852396,0.078201365,0.752688169,0.6060606,0.058651023,0.654936409,1.89638319,0.860215092,0.097751703,0.166177917,0.127077222,0.3030303,0.3030303,0.254154444,0.928641224,0.420332336
1.04594326,0.215053773,0.205278587,0.547409582,0.136852396,0.068426199,0.772238493,0.625610924,0.058651023,0.586510229,1.906158352,0.801564026,0.107526886,0.156402731,0.127077222,0.38123167,0.3030303,0.224828935,0.918866062,0.430107546
1.026392937,0.205278587,0.195503416,0.557184744,0.117302048,0.078201365,0.85043993,0.6060606,0.048875852,0.615835762,1.769305944,0.801564026,0.107526886,0.166177917,0.117302048,0.361681342,0.322580624,0.195503416,0.997067451,0.410557175
0.997067451,0.185728254,0.185728254,0.518084049,0.117302048,0.078201365,0.85043993,0.596285439,0.058651023,0.615835762,1.642228699,0.860215092,0.107526886,0.166177917,0.127077222,0.332355833,0.3030303,0.175953078,0.899315739,0.478983355
0.938416386,0.244379282,0.175953078,0.469208193,0.205278587,0.078201365,0.899315739,0.586510229,0.058651023,0.576735067,1.505376339,0.830889511,0.107526886,0.14662756,0.136852396,0.3030303,0.293255119,0.175953078,0.811339188,0.488758564
0.860215092,0.263929605,0.175953078,0.478983355,0.430107546,0.078201365,0.967741871,0.576735067,0.068426199,0.53763442,1.524926662,0.821114349,0.107526886,0.136852396,0.117302048,0.312805462,0.263929605,0.166177917,0.811339188,0.518084049
1.036168098,0.263929605,0.185728254,0.449657869,0.420332336,0.078201365,0.98729229,0.508308887,0.058651023,0.508308887,1.534701824,0.879765415,0.107526886,0.14662756,0.127077222,0.332355833,0.244379282,0.156402731,0.762463331,0.566959906
0.957966709,0.254154444,0.166177917,0.449657869,0.351906157,0.068426199,0.928641224,0.508308887,0.058651023,0.488758564,1.45650053,0.957966709,0.097751703,0.166177917,0.117302048,0.38123167,0.244379282,0.185728254,0.674486828,0.6060606
0.879765415,0.283479958,0.175953078,0.459433031,0.332355833,0.078201365,0.98729229,0.557184744,0.068426199,0.439882708,1.436950111,1.006842613,0.097751703,0.175953078,0.117302048,0.342130995,0.244379282,0.166177917,0.645161247,0.635386086
0.85043993,0.293255119,0.185728254,0.430107546,0.332355833,0.068426199,0.9090909,0.6060606,0.068426199,0.400782013,1.231671572,0.98729229,0.087976542,0.175953078,0.117302048,0.322580624,0.254154444,0.14662756,0.635386086,0.654936409
0.98729229,0.293255119,0.175953078,0.430107546,0.3030303,0.068426199,0.879765415,0.68426199,0.087976542,0.38123167,1.085044022,0.830889511,0.087976542,0.156402731,0.107526886,0.332355833,0.273704791,0.166177917,0.664711666,0.694037151
0.938416386,0.283479958,0.175953078,0.459433031,0.254154444,0.078201365,0.9090909,0.586510229,0.087976542,0.361681342,1.055718422,0.762463331,0.078201365,0.136852396,0.127077222,0.3030303,0.263929605,0.156402731,0.6060606,0.791788864
0.928641224,0.322580624,0.185728254,0.478983355,0.234604096,0.068426199,1.055718422,0.53763442,0.078201365,0.361681342,0.948191547,0.801564026,0.078201365,0.127077222,0.127077222,0.332355833,0.283479958,0.166177917,0.664711666,0.879765415
1.094819183,0.293255119,0.166177917,0.459433031,0.254154444,0.078201365,1.036168098,0.557184744,0.097751703,0.332355833,0.791788864,0.782013655,0.087976542,0.136852396,0.117302048,0.283479958,0.254154444,0.175953078,0.664711666,0.948191547
1.016617775,0.3030303,0.175953078,0.53763442,0.224828935,0.078201365,1.016617775,0.645161247,0.097751703,0.371456504,0.703812313,0.68426199,0.087976542,0.127077222,0.117302048,0.3030303,0.283479958,0.156402731,0.723362684,1.026392937
0.889540577,0.3030303,0.156402731,0.547409582,0.195503416,0.078201365,1.04594326,0.6060606,0.107526886,0.322580624,0.68426199,0.654936409,0.078201365,0.136852396,0.117302048,0.293255119,0.263929605,0.185728254,0.733137846,1.036168098
0.821114349,0.293255119,0.14662756,0.518084049,0.185728254,0.078201365,1.16324532,0.733137846,0.127077222,0.312805462,0.566959906,0.674486828,0.078201365,0.127077222,0.136852396,0.283479958,0.254154444,0.185728254,0.742913008,1.075268865
0.801564026,0.3030303,0.14662756,0.498533726,0.185728254,0.068426199,1.143694997,0.782013655,0.117302048,0.293255119,0.469208193,0.782013655,0.078201365,0.166177917,0.14662756,0.263929605,0.244379282,0.175953078,0.674486828,0.938416386
0.879765415,0.312805462,0.156402731,0.498533726,0.156402731,0.068426199,1.319648147,0.742913008,0.117302048,0.3030303,0.459433031,0.694037151,0.078201365,0.195503416,0.185728254,0.244379282,0.263929605,0.166177917,0.674486828,0.879765415
0.9090909,0.332355833,0.156402731,0.469208193,0.14662756,0.078201365,1.300097704,0.742913008,0.127077222,0.322580624,0.410557175,0.645161247,0.078201365,0.205278587,0.195503416,0.234604096,0.273704791,0.166177917,0.694037151,0.791788864
0.967741871,0.332355833,0.156402731,0.478983355,0.175953078,0.078201365,1.33919847,0.723362684,0.127077222,0.293255119,0.342130995,0.733137846,0.068426199,0.175953078,0.195503416,0.224828935,0.263929605,0.14662756,0.625610924,0.918866062
0.997067451,0.38123167,0.156402731,0.469208193,0.175953078,0.068426199,1.28054738,0.791788864,0.14662756,0.273704791,0.293255119,0.68426199,0.068426199,0.175953078,0.195503416,0.205278587,0.263929605,0.127077222,0.527859211,1.026392937
1.04594326,0.439882708,0.166177917,0.469208193,0.185728254,0.068426199,1.231671572,0.801564026,0.156402731,0.244379282,0.263929605,0.703812313,0.087976542,0.175953078,0.185728254,0.185728254,0.254154444,0.117302048,0.449657869,1.006842613
0.967741871,0.439882708,0.175953078,0.430107546,0.175953078,0.078201365,1.202346087,0.772238493,0.156402731,0.312805462,0.234604096,0.694037151,0.087976542,0.166177917,0.205278587,0.175953078,0.263929605,0.097751703,0.400782013,1.153470159
0.869990253,0.420332336,0.185728254,0.469208193,0.166177917,0.078201365,1.182795639,0.752688169,0.156402731,0.293255119,0.205278587,0.586510229,0.097751703,0.14662756,0.215053773,0.175953078,0.254154444,0.087976542,0.38123167,1.251221895
0.889540577,0.420332336,0.185728254,0.478983355,0.156402731,0.078201365,1.358748794,0.674486828,0.166177917,0.3030303,0.195503416,0.557184744,0.097751703,0.14662756,0.224828935,0.175953078,0.234604096,0.097751703,0.400782013,1.143694997
0.899315739,0.498533726,0.185728254,0.439882708,0.156402731,0.068426199,1.368523955,0.674486828,0.156402731,0.342130995,0.205278587,0.498533726,0.097751703,0.136852396,0.234604096,0.205278587,0.224828935,0.107526886,0.410557175,1.114369512
0.821114349,0.576735067,0.185728254,0.449657869,0.166177917,0.078201365,1.407624626,0.68426199,0.156402731,0.38123167,0.244379282,0.488758564,0.097751703,0.127077222,0.263929605,0.215053773,0.205278587,0.117302048,0.371456504,1.094819183
0.899315739,0.508308887,0.195503416,0.459433031,0.156402731,0.068426199,1.319648147,0.664711666,0.175953078,0.38123167,0.224828935,0.459433031,0.097751703,0.107526886,0.283479958,0.195503416,0.195503416,0.117302048,0.312805462,1.358748794
0.967741871,0.459433031,0.215053773,0.469208193,0.166177917,0.078201365,1.358748794,0.625610924,0.185728254,0.342130995,0.283479958,0.508308887,0.117302048,0.107526886,0.312805462,0.185728254,0.195503416,0.117302048,0.273704791,1.251221895
0.957966709,0.527859211,0.234604096,0.566959906,0.156402731,0.068426199,1.251221895,0.635386086,0.185728254,0.342130995,0.293255119,0.488758564,0.136852396,0.097751703,0.342130995,0.175953078,0.195503416,0.127077222,0.244379282,1.388074284
0.928641224,0.478983355,0.234604096,0.53763442,0.136852396,0.068426199,1.300097704,0.625610924,0.205278587,0.351906157,0.273704791,0.449657869,0.14662756,0.097751703,0.38123167,0.166177917,0.195503416,0.127077222,0.254154444,1.329423308
0.889540577,0.469208193,0.234604096,0.508308887,0.166177917,0.078201365,1.231671572,0.6060606,0.195503416,0.322580624,0.273704791,0.459433031,0.156402731,0.097751703,0.361681342,0.156402731,0.224828935,0.136852396,0.263929605,1.182795639
0.860215092,0.557184744,0.224828935,0.547409582,0.14662756,0.068426199,1.241446733,0.694037151,0.215053773,0.342130995,0.351906157,0.430107546,0.156402731,0.087976542,0.342130995,0.205278587,0.234604096,0.136852396,0.234604096,1.202346087
0.752688169,0.586510229,0.215053773,0.6060606,0.14662756,0.078201365,1.446725368,0.674486828,0.234604096,0.342130995,0.332355833,0.449657869,0.14662756,0.087976542,0.332355833,0.195503416,0.224828935,0.136852396,0.254154444,1.16324532
0.654936409,0.635386086,0.205278587,0.6060606,0.14662756,0.078201365,1.368523955,0.654936409,0.224828935,0.361681342,0.322580624,0.449657869,0.156402731,0.078201365,0.361681342,0.195503416,0.215053773,0.136852396,0.361681342,0.997067451
0.635386086,0.596285439,0.185728254,0.596285439,0.14662756,0.068426199,1.466275692,0.674486828,0.244379282,0.312805462,0.312805462,0.420332336,0.156402731,0.078201365,0.391006832,0.185728254,0.215053773,0.117302048,0.449657869,0.879765415
0.654936409,0.615835762,0.175953078,0.625610924,0.136852396,0.068426199,1.534701824,0.664711666,0.273704791,0.3030303,0.342130995,0.469208193,0.156402731,0.068426199,0.469208193,0.185728254,0.215053773,0.117302048,0.439882708,0.811339188
0.615835762,0.625610924,0.166177917,0.6060606,0.136852396,0.078201365,1.485826015,0.645161247,0.283479958,0.322580624,0.332355833,0.430107546,0.166177917,0.068426199,0.449657869,0.175953078,0.205278587,0.107526886,0.371456504,0.723362684
0.674486828,0.674486828,0.166177917,0.547409582,0.166177917,0.078201365,1.564027309,0.576735067,0.283479958,0.293255119,0.361681342,0.391006832,0.195503416,0.068426199,0.469208193,0.156402731,0.205278587,0.097751703,0.420332336,0.625610924
0.713587475,0.703812313,0.156402731,0.53763442,0.175953078,0.078201365,1.710654974,0.674486828,0.322580624,0.293255119,0.410557175,0.38123167,0.215053773,0.068426199,0.469208193,0.156402731,0.215053773,0.087976542,0.469208193,0.547409582
0.645161247,0.694037151,0.156402731,0.53763442,0.175953078,0.078201365,1.730205297,0.703812313,0.332355833,0.293255119,0.439882708,0.391006832,0.234604096,0.068426199,0.508308887,0.156402731,0.254154444,0.068426199,0.449657869,0.478983355
0.566959906,0.674486828,0.14662756,0.498533726,0.14662756,0.087976542,1.59335289,0.664711666,0.3030303,0.283479958,0.478983355,0.38123167,0.224828935,0.058651023,0.557184744,0.14662756,0.254154444,0.058651023,0.391006832,0.430107546
0.576735067,0.674486828,0.14662756,0.478983355,0.127077222,0.087976542,1.505376339,0.703812313,0.371456504,0.283479958,0.469208193,0.351906157,0.215053773,0.058651023,0.596285439,0.136852396,0.234604096,0.058651023,0.371456504,0.400782013
0.527859211,0.762463331,0.127077222,0.459433031,0.136852396,0.087976542,1.476050854,0.68426199,0.439882708,0.263929605,0.478983355,0.342130995,0.224828935,0.058651023,0.625610924,0.127077222,0.224828935,0.068426199,0.322580624,0.400782013
0.557184744,0.801564026,0.127077222,0.459433031,0.127077222,0.078201365,1.407624626,0.615835762,0.420332336,0.254154444,0.430107546,0.371456504,0.273704791,0.058651023,0.645161247,0.136852396,0.185728254,0.058651023,0.293255119,0.371456504
0.566959906,0.98729229,0.136852396,0.410557175,0.127077222,0.078201365,1.348973632,0.547409582,0.410557175,0.224828935,0.38123167,0.332355833,0.342130995,0.058651023,0.713587475,0.136852396,0.185728254,0.058651023,0.273704791,0.332355833
0.527859211,0.899315739,0.127077222,0.430107546,0.117302048,0.087976542,1.290322542,0.53763442,0.478983355,0.234604096,0.400782013,0.312805462,0.361681342,0.068426199,0.723362684,0.136852396,0.195503416,0.068426199,0.263929605,0.3030303
0.586510229,0.957966709,0.136852396,0.420332336,0.107526886,0.087976542,1.153470159,0.547409582,0.488758564,0.244379282,0.391006832,0.322580624,0.371456504,0.068426199,0.840664673,0.14662756,0.175953078,0.078201365,0.263929605,0.3030303
0.576735067,1.143694997,0.14662756,0.38123167,0.107526886,0.097751703,1.075268865,0.557184744,0.488758564,0.244379282,0.410557175,0.332355833,0.351906157,0.058651023,0.869990253,0.14662756,0.166177917,0.078201365,0.293255119,0.293255119
0.596285439,1.085044022,0.14662756,0.371456504,0.117302048,0.097751703,0.98729229,0.566959906,0.566959906,0.244379282,0.439882708,0.293255119,0.322580624,0.058651023,0.948191547,0.156402731,0.166177917,0.078201365,0.3030303,0.283479958
0.547409582,1.065493703,0.14662756,0.430107546,0.117302048,0.097751703,0.977517128,0.576735067,0.654936409,0.215053773,0.469208193,0.254154444,0.3030303,0.058651023,1.006842613,0.14662756,0.156402731,0.068426199,0.351906157,0.342130995
0.459433031,1.251221895,0.14662756,0.400782013,0.117302048,0.107526886,0.928641224,0.635386086,0.723362684,0.185728254,0.449657869,0.263929605,0.322580624,0.058651023,0.977517128,0.14662756,0.156402731,0.068426199,0.361681342,0.342130995
0.420332336,1.202346087,0.136852396,0.420332336,0.107526886,0.107526886,0.928641224,0.645161247,0.733137846,0.195503416,0.449657869,0.254154444,0.3030303,0.058651023,1.006842613,0.127077222,0.166177917,0.058651023,0.361681342,0.38123167
0.449657869,1.241446733,0.136852396,0.38123167,0.107526886,0.117302048,0.830889511,0.596285439,0.713587475,0.205278587,0.527859211,0.234604096,0.420332336,0.058651023,0.928641224,0.14662756,0.166177917,0.058651023,0.400782013,0.391006832
0.410557175,1.290322542,0.136852396,0.410557175,0.14662756,0.107526886,0.762463331,0.586510229,0.879765415,0.195503416,0.498533726,0.254154444,0.391006832,0.058651023,0.9090909,0.14662756,0.166177917,0.058651023,0.400782013,0.38123167
0.410557175,1.436950111,0.136852396,0.459433031,0.166177917,0.107526886,0.772238493,0.53763442,1.085044022,0.175953078,0.518084049,0.254154444,0.361681342,0.058651023,0.85043993,0.127077222,0.156402731,0.058651023,0.430107546,0.342130995
0.400782013,1.358748794,0.14662756,0.430107546,0.156402731,0.117302048,0.713587475,0.478983355,1.241446733,0.175953078,0.518084049,0.224828935,0.342130995,0.058651023,0.938416386,0.117302048,0.156402731,0.058651023,0.53763442,0.38123167
0.410557175,1.358748794,0.14662756,0.400782013,0.156402731,0.117302048,0.586510229,0.498533726,1.260997057,0.156402731,0.469208193,0.195503416,0.322580624,0.058651023,0.98729229,0.107526886,0.166177917,0.058651023,0.586510229,0.410557175
0.38123167,1.446725368,0.14662756,0.391006832,0.156402731,0.117302048,0.566959906,0.566959906,1.33919847,0.14662756,0.557184744,0.175953078,0.312805462,0.058651023,1.036168098,0.107526886,0.156402731,0.058651023,0.566959906,0.371456504
0.371456504,1.495601177,0.14662756,0.400782013,0.185728254,0.117302048,0.518084049,0.557184744,1.290322542,0.175953078,0.547409582,0.166177917,0.332355833,0.068426199,1.173020482,0.097751703,0.166177917,0.048875852,0.596285439,0.342130995
0.391006832,1.407624626,0.166177917,0.391006832,0.166177917,0.166177917,0.430107546,0.508308887,1.358748794,0.156402731,0.518084049,0.156402731,0.371456504,0.068426199,1.260997057,0.097751703,0.166177917,0.048875852,0.557184744,0.322580624
0.371456504,1.388074284,0.175953078,0.420332336,0.156402731,0.166177917,0.371456504,0.488758564,1.505376339,0.156402731,0.518084049,0.14662756,0.488758564,0.078201365,1.348973632,0.097751703,0.175953078,0.039100683,0.625610924,0.361681342
0.371456504,1.397849445,0.185728254,0.391006832,0.156402731,0.166177917,0.439882708,0.488758564,1.485826015,0.14662756,0.527859211,0.136852396,0.6060606,0.068426199,1.329423308,0.087976542,0.166177917,0.039100683,0.615835762,0.391006832
0.361681342,1.446725368,0.175953078,0.38123167,0.185728254,0.166177917,0.410557175,0.518084049,1.436950111,0.156402731,0.478983355,0.117302048,0.625610924,0.087976542,1.251221895,0.087976542,0.185728254,0.039100683,0.6060606,0.410557175
0.332355833,1.397849445,0.185728254,0.420332336,0.175953078,0.156402731,0.449657869,0.488758564,1.42717495,0.136852396,0.449657869,0.097751703,0.645161247,0.087976542,1.270772219,0.078201365,0.195503416,0.048875852,0.6060606,0.351906157
0.312805462,1.710654974,0.175953078,0.410557175,0.156402731,0.14662756,0.459433031,0.430107546,1.397849445,0.136852396,0.527859211,0.097751703,0.821114349,0.107526886,1.270772219,0.087976542,0.185728254,0.048875852,0.615835762,0.322580624
0.312805462,1.671554184,0.166177917,0.361681342,0.166177917,0.166177917,0.518084049,0.439882708,1.417399788,0.127077222,0.596285439,0.087976542,0.948191547,0.117302048,1.329423308,0.127077222,0.175953078,0.039100683,0.664711666,0.312805462
0.293255119,1.485826015,0.185728254,0.38123167,0.166177917,0.166177917,0.566959906,0.508308887,1.231671572,0.127077222,0.576735067,0.087976542,0.879765415,0.117302048,1.319648147,0.107526886,0.156402731,0.039100683,0.645161247,0.293255119
0.263929605,1.524926662,0.195503416,0.391006832,0.14662756,0.156402731,0.527859211,0.53763442,1.192570925,0.117302048,0.518084049,0.097751703,0.928641224,0.175953078,1.260997057,0.097751703,0.156402731,0.048875852,0.576735067,0.293255119
0.234604096,1.309872866,0.234604096,0.449657869,0.14662756,0.175953078,0.488758564,0.459433031,1.016617775,0.107526886,0.478983355,0.087976542,0.918866062,0.166177917,1.182795639,0.078201365,0.156402731,0.039100683,0.576735067,0.332355833
0.215053773,1.241446733,0.234604096,0.459433031,0.127077222,0.195503416,0.478983355,0.391006832,0.899315739,0.097751703,0.469208193,0.087976542,0.869990253,0.185728254,1.143694997,0.087976542,0.156402731,0.029325512,0.527859211,0.342130995
0.215053773,1.143694997,0.254154444,0.439882708,0.156402731,0.195503416,0.469208193,0.38123167,0.821114349,0.087976542,0.488758564,0.107526886,0.899315739,0.185728254,1.10459435,0.078201365,0.14662756,0.029325512,0.547409582,0.342130995
0.205278587,1.04594326,0.273704791,0.400782013,0.156402731,0.185728254,0.469208193,0.38123167,0.830889511,0.097751703,0.508308887,0.136852396,0.98729229,0.263929605,1.006842613,0.078201365,0.136852396,0.029325512,0.547409582,0.38123167
0.215053773,0.997067451,0.293255119,0.420332336,0.156402731,0.205278587,0.469208193,0.400782013,0.723362684,0.087976542,0.576735067,0.127077222,0.957966709,0.293255119,0.879765415,0.068426199,0.136852396,0.029325512,0.596285439,0.361681342
0.224828935,0.977517128,0.3030303,0.391006832,0.136852396,0.224828935,0.420332336,0.38123167,0.694037151,0.087976542,0.586510229,0.127077222,0.879765415,0.283479958,0.791788864,0.087976542,0.136852396,0.019550342,0.664711666,0.361681342
0.215053773,0.918866062,0.332355833,0.391006832,0.117302048,0.234604096,0.410557175,0.342130995,0.68426199,0.068426199,0.53763442,0.107526886,0.811339188,0.293255119,0.772238493,0.087976542,0.127077222,0.019550342,0.723362684,0.361681342
0.205278587,1.348973632,0.400782013,0.391006832,0.107526886,0.215053773,0.420332336,0.293255119,0.654936409,0.068426199,0.557184744,0.097751703,0.723362684,0.283479958,0.703812313,0.078201365,0.136852396,0.019550342,0.713587475,0.351906157
0.185728254,1.290322542,0.400782013,0.371456504,0.107526886,0.185728254,0.410557175,0.263929605,0.625610924,0.058651023,0.498533726,0.097751703,0.733137846,0.312805462,0.6060606,0.078201365,0.14662756,0.029325512,0.664711666,0.332355833
0.175953078,1.33919847,0.410557175,0.361681342,0.097751703,0.185728254,0.439882708,0.254154444,0.635386086,0.068426199,0.459433031,0.097751703,0.645161247,0.322580624,0.557184744,0.087976542,0.14662756,0.039100683,0.615835762,0.342130995
0.156402731,1.241446733,0.38123167,0.351906157,0.087976542,0.175953078,0.439882708,0.234604096,0.713587475,0.058651023,0.518084049,0.127077222,0.615835762,0.361681342,0.498533726,0.087976542,0.136852396,0.039100683,0.557184744,0.351906157
0.127077222,1.319648147,0.38123167,0.361681342,0.087976542,0.185728254,0.439882708,0.273704791,0.713587475,0.058651023,0.518084049,0.14662756,0.654936409,0.342130995,0.439882708,0.068426199,0.136852396,0.048875852,0.508308887,0.342130995
0.117302048,1.192570925,0.391006832,0.410557175,0.097751703,0.175953078,0.469208193,0.244379282,0.625610924,0.068426199,0.576735067,0.14662756,0.615835762,0.38123167,0.400782013,0.078201365,0.14662756,0.058651023,0.469208193,0.371456504
0.107526886,1.143694997,0.430107546,0.38123167,0.087976542,0.156402731,0.547409582,0.205278587,0.53763442,0.078201365,0.53763442,0.136852396,0.586510229,0.420332336,0.391006832,0.097751703,0.14662756,0.058651023,0.498533726,0.361681342
0.097751703,1.143694997,0.449657869,0.391006832,0.078201365,0.166177917,0.527859211,0.175953078,0.508308887,0.068426199,0.615835762,0.156402731,0.694037151,0.488758564,0.361681342,0.087976542,0.136852396,0.068426199,0.508308887,0.38123167
0.087976542,1.182795639,0.518084049,0.420332336,0.078201365,0.166177917,0.498533726,0.14662756,0.53763442,0.068426199,0.654936409,0.166177917,0.68426199,0.459433031,0.342130995,0.087976542,0.14662756,0.087976542,0.478983355,0.371456504
0.078201365,1.22189641,0.518084049,0.391006832,0.068426199,0.166177917,0.449657869,0.127077222,0.498533726,0.058651023,0.596285439,0.195503416,0.635386086,0.53763442,0.342130995,0.087976542,0.14662756,0.107526886,0.459433031,0.361681342
0.078201365,1.124144673,0.459433031,0.391006832,0.078201365,0.14662756,0.478983355,0.136852396,0.488758564,0.068426199,0.586510229,0.205278587,0.586510229,0.6060606,0.3030303,0.078201365,0.156402731,0.127077222,0.488758564,0.410557175
0.097751703,1.094819183,0.449657869,0.371456504,0.078201365,0.14662756,0.498533726,0.14662756,0.478983355,0.068426199,0.53763442,0.273704791,0.547409582,0.576735067,0.263929605,0.068426199,0.175953078,0.127077222,0.459433031,0.391006832
0.127077222,1.055718422,0.449657869,0.351906157,0.068426199,0.136852396,0.439882708,0.14662756,0.439882708,0.078201365,0.527859211,0.3030303,0.488758564,0.566959906,0.254154444,0.068426199,0.175953078,0.136852396,0.478983355,0.361681342
0.136852396,0.948191547,0.498533726,0.351906157,0.087976542,0.127077222,0.410557175,0.14662756,0.420332336,0.078201365,0.508308887,0.312805462,0.459433031,0.547409582,0.263929605,0.078201365,0.175953078,0.136852396,0.449657869,0.332355833
0.14662756,1.124144673,0.576735067,0.391006832,0.127077222,0.117302048,0.400782013,0.185728254,0.420332336,0.068426199,0.518084049,0.410557175,0.400782013,0.547409582,0.234604096,0.068426199,0.175953078,0.136852396,0.420332336,0.38123167
0.136852396,1.04594326,0.635386086,0.38123167,0.127077222,0.117302048,0.38123167,0.205278587,0.410557175,0.058651023,0.478983355,0.410557175,0.391006832,0.576735067,0.215053773,0.078201365,0.195503416,0.127077222,0.459433031,0.361681342
0.156402731,1.094819183,0.6060606,0.361681342,0.117302048,0.107526886,0.371456504,0.195503416,0.400782013,0.058651023,0.488758564,0.439882708,0.332355833,0.742913008,0.195503416,0.117302048,0.205278587,0.117302048,0.508308887,0.342130995
0.175953078,1.114369512,0.615835762,0.371456504,0.136852396,0.097751703,0.371456504,0.215053773,0.371456504,0.048875852,0.439882708,0.400782013,0.293255119,0.733137846,0.185728254,0.117302048,0.185728254,0.107526886,0.488758564,0.351906157
0.234604096,1.055718422,0.586510229,0.38123167,0.127077222,0.097751703,0.351906157,0.263929605,0.371456504,0.039100683,0.430107546,0.391006832,0.254154444,0.703812313,0.175953078,0.107526886,0.195503416,0.087976542,0.498533726,0.332355833
0.244379282,1.04594326,0.566959906,0.351906157,0.136852396,0.097751703,0.342130995,0.312805462,0.351906157,0.048875852,0.420332336,0.459433031,0.224828935,0.938416386,0.166177917,0.117302048,0.185728254,0.087976542,0.488758564,0.312805462
0.293255119,1.085044022,0.68426199,0.342130995,0.127077222,0.097751703,0.371456504,0.322580624,0.371456504,0.068426199,0.449657869,0.459433031,0.205278587,1.04594326,0.156402731,0.097751703,0.185728254,0.078201365,0.488758564,0.361681342
0.3030303,1.22189641,0.674486828,0.322580624,0.107526886,0.097751703,0.400782013,0.322580624,0.400782013,0.058651023,0.459433031,0.449657869,0.215053773,1.065493703,0.185728254,0.097751703,0.185728254,0.087976542,0.469208193,0.361681342
0.273704791,1.192570925,0.674486828,0.342130995,0.097751703,0.107526886,0.361681342,0.322580624,0.361681342,0.048875852,0.439882708,0.518084049,0.215053773,1.006842613,0.185728254,0.097751703,0.166177917,0.087976542,0.430107546,0.332355833
0.283479958,1.241446733,0.752688169,0.351906157,0.087976542,0.107526886,0.351906157,0.3030303,0.342130995,0.048875852,0.439882708,0.459433031,0.244379282,1.143694997,0.185728254,0.097751703,0.14662756,0.078201365,0.430107546,0.3030303
0.263929605,1.212121248,0.733137846,0.351906157,0.097751703,0.107526886,0.322580624,0.322580624,0.391006832,0.058651023,0.410557175,0.645161247,0.293255119,1.133919835,0.185728254,0.117302048,0.136852396,0.078201365,0.400782013,0.332355833
0.234604096,1.202346087,0.840664673,0.371456504,0.107526886,0.136852396,0.322580624,0.351906157,0.469208193,0.068426199,0.391006832,0.68426199,0.293255119,0.98729229,0.185728254,0.107526886,0.136852396,0.068426199,0.38123167,0.322580624
0.205278587,1.192570925,0.967741871,0.361681342,0.127077222,0.136852396,0.312805462,0.371456504,0.527859211,0.068426199,0.400782013,0.879765415,0.293255119,1.026392937,0.195503416,0.107526886,0.127077222,0.068426199,0.38123167,0.322580624
0.175953078,1.085044022,1.04594326,0.371456504,0.117302048,0.127077222,0.3030303,0.361681342,0.508308887,0.068426199,0.38123167,0.918866062,0.3030303,1.04594326,0.224828935,0.117302048,0.117302048,0.068426199,0.361681342,0.3030303
0.166177917,1.075268865,1.055718422,0.342130995,0.117302048,0.136852396,0.293255119,0.391006832,0.508308887,0.078201365,0.371456504,0.928641224,0.263929605,0.948191547,0.263929605,0.117302048,0.107526886,0.068426199,0.361681342,0.283479958
0.14662756,1.006842613,1.036168098,0.361681342,0.117302048,0.14662756,0.273704791,0.400782013,0.527859211,0.078201365,0.38123167,0.869990253,0.244379282,1.085044022,0.263929605,0.107526886,0.107526886,0.078201365,0.361681342,0.254154444
0.14662756,0.938416386,1.114369512,0.371456504,0.127077222,0.156402731,0.273704791,0.478983355,0.508308887,0.087976542,0.371456504,0.938416386,0.244379282,1.16324532,0.293255119,0.107526886,0.117302048,0.078201365,0.361681342,0.234604096
0.14662756,1.006842613,1.114369512,0.351906157,0.117302048,0.14662756,0.293255119,0.508308887,0.469208193,0.087976542,0.371456504,0.860215092,0.254154444,1.436950111,0.361681342,0.117302048,0.117302048,0.078201365,0.38123167,0.244379282
0.156402731,0.938416386,1.016617775,0.361681342,0.127077222,0.166177917,0.361681342,0.557184744,0.459433031,0.097751703,0.371456504,0.997067451,0.293255119,1.300097704,0.38123167,0.107526886,0.127077222,0.087976542,0.361681342,0.234604096
0.136852396,0.967741871,0.997067451,0.351906157,0.107526886,0.166177917,0.342130995,0.635386086,0.498533726,0.087976542,0.371456504,1.036168098,0.322580624,1.407624626,0.38123167,0.107526886,0.127077222,0.087976542,0.371456504,0.224828935
0.136852396,1.173020482,0.977517128,0.332355833,0.156402731,0.156402731,0.312805462,0.645161247,0.449657869,0.068426199,0.342130995,0.948191547,0.3030303,1.45650053,0.410557175,0.117302048,0.127077222,0.078201365,0.400782013,0.205278587
0.136852396,1.065493703,0.957966709,0.342130995,0.14662756,0.14662756,0.322580624,0.625610924,0.527859211,0.058651023,0.361681342,1.006842613,0.361681342,1.348973632,0.38123167,0.175953078,0.127077222,0.068426199,0.391006832,0.215053773
0.127077222,1.055718422,1.016617775,0.342130995,0.127077222,0.156402731,0.38123167,0.68426199,0.508308887,0.058651023,0.391006832,1.075268865,0.342130995,1.329423308,0.420332336,0.205278587,0.127077222,0.058651023,0.38123167,0.215053773
0.127077222,0.98729229,1.094819183,0.332355833,0.107526886,0.14662756,0.371456504,0.811339188,0.508308887,0.048875852,0.361681342,1.055718422,0.38123167,1.16324532,0.439882708,0.273704791,0.136852396,0.048875852,0.342130995,0.215053773
0.14662756,0.948191547,1.075268865,0.293255119,0.117302048,0.156402731,0.342130995,0.811339188,0.547409582,0.048875852,0.342130995,1.055718422,0.439882708,1.348973632,0.449657869,0.3030303,0.14662756,0.039100683,0.371456504,0.234604096
0.136852396,0.938416386,1.065493703,0.283479958,0.136852396,0.156402731,0.332355833,0.879765415,0.557184744,0.048875852,0.361681342,1.16324532,0.430107546,1.28054738,0.459433031,0.3030303,0.156402731,0.039100683,0.371456504,0.244379282
0.14662756,0.918866062,0.98729229,0.3030303,0.127077222,0.175953078,0.3030303,0.918866062,0.615835762,0.058651023,0.400782013,1.329423308,0.400782013,1.153470159,0.439882708,0.283479958,0.166177917,0.039100683,0.38123167,0.234604096
0.136852396,0.860215092,1.10459435,0.312805462,0.107526886,0.195503416,0.3030303,1.04594326,0.586510229,0.078201365,0.361681342,1.241446733,0.391006832,1.42717495,0.478983355,0.254154444,0.166177917,0.058651023,0.371456504,0.234604096
0.136852396,0.830889511,1.124144673,0.3030303,0.097751703,0.175953078,0.312805462,0.957966709,0.53763442,0.078201365,0.322580624,1.202346087,0.351906157,1.260997057,0.449657869,0.244379282,0.156402731,0.048875852,0.332355833,0.234604096
0.127077222,0.801564026,1.143694997,0.351906157,0.107526886,0.166177917,0.400782013,1.124144673,0.498533726,0.087976542,0.342130995,1.133919835,0.342130995,1.094819183,0.391006832,0.215053773,0.156402731,0.048875852,0.332355833,0.224828935
0.127077222,0.772238493,1.114369512,0.351906157,0.107526886,0.14662756,0.430107546,1.143694997,0.488758564,0.097751703,0.351906157,1.153470159,0.332355833,0.948191547,0.439882708,0.195503416,0.166177917,0.048875852,0.332355833,0.224828935
0.14662756,0.654936409,1.202346087,0.361681342,0.087976542,0.14662756,0.410557175,1.309872866,0.527859211,0.136852396,0.361681342,1.251221895,0.361681342,0.889540577,0.420332336,0.166177917,0.156402731,0.048875852,0.332355833,0.224828935
0.14662756,0.586510229,1.153470159,0.361681342,0.078201365,0.136852396,0.38123167,1.534701824,0.518084049,0.127077222,0.38123167,1.182795639,0.351906157,0.772238493,0.371456504,0.14662756,0.166177917,0.048875852,0.322580624,0.215053773
0.156402731,0.557184744,1.319648147,0.38123167,0.107526886,0.136852396,0.351906157,1.495601177,0.459433031,0.117302048,0.351906157,1.173020482,0.38123167,0.703812313,0.391006832,0.127077222,0.195503416,0.048875852,0.361681342,0.205278587
