0.0879765415,0.0097751703,0.1955034160,0.0293255119
0.9579667091,1.1241446733,0.3225806236,0.2834799575
0.7526881694,0.8895405769,0.2639296054,0.3910068321
0.5962854385,0.7038123130,0.2052785873,0.4301075458
0.4692081928,0.5669599056,0.1564027309,0.4496578693
0.3714565038,0.4496578693,0.1270772218,0.4203323364
0.2834799575,0.3519061565,0.0977517032,0.3421309947
0.2248289346,0.2932551193,0.0782013654,0.2834799575
0.1759530782,0.2346040964,0.0586510229,0.2346040964
0.1466275596,0.1955034160,0.0488758516,0.1955034160
0.1075268864,0.1466275596,0.0391006832,0.1564027309
0.0879765415,0.1270772218,0.0293255119,0.1368523955
0.0684261989,0.0977517032,0.0195503416,0.1173020482
0.0488758516,0.0782013654,0.0195503416,0.1075268864
0.0391006832,0.0586510229,0.0097751703,0.0879765415
0.0293255119,0.0488758516,0.0000000000,0.0782013654
0.0195503416,0.0391006832,0.0097751703,0.0782013654
0.0195503416,0.0293255119,0.0000000000,0.0684261989
0.0097751703,0.0293255119,0.0000000000,0.0684261989
0.0097751703,0.0195503416,0.0000000000,0.0684261989
0.0097751703,0.0097751703,0.0000000000,0.0782013654
0.0097751703,0.0097751703,0.0000000000,0.0977517032
0.0000000000,0.0097751703,0.0000000000,0.0879765415
0.0000000000,0.0097751703,0.0000000000,0.0782013654
0.0000000000,0.0097751703,0.0000000000,0.0684261989
0.0000000000,0.0097751703,0.0000000000,0.0586510229
0.0000000000,0.0097751703,0.0000000000,0.0586510229
0.0000000000,0.0097751703,0.0000000000,0.0586510229
0.0000000000,0.0097751703,0.0000000000,0.0488758516
0.0000000000,0.0097751703,0.0000000000,0.0488758516
0.0000000000,0.0097751703,0.0000000000,0.0391006832
0.0000000000,0.0195503416,0.0000000000,0.0488758516
0.0000000000,0.0195503416,0.0000000000,0.0391006832
0.0000000000,0.0097751703,0.0000000000,0.0391006832
0.0000000000,0.0097751703,0.0000000000,0.0391006832
0.0000000000,0.0097751703,0.0000000000,0.0293255119
0.0000000000,0.0097751703,0.0000000000,0.0293255119
0.0000000000,0.0097751703,0.0000000000,0.0391006832
0.0000000000,0.0195503416,0.0000000000,0.0391006832
0.0000000000,0.0195503416,0.0000000000,0.0391006832
0.0000000000,0.0195503416,0.0000000000,0.0293255119
0.0000000000,0.0195503416,0.0000000000,0.0293255119
0.0000000000,0.0293255119,0.0000000000,0.0293255119
0.0000000000,0.0293255119,0.0000000000,0.0195503416
0.0000000000,0.0391006832,0.0000000000,0.0195503416
0.0000000000,0.0586510229,0.0000000000,0.0195503416
0.0000000000,0.0977517032,0.0000000000,0.0195503416
0.0000000000,0.1075268864,0.0000000000,0.0097751703
0.0000000000,0.1075268864,0.0000000000,0.0097751703
0.0000000000,0.1173020482,0.0000000000,0.0097751703
0.0000000000,0.1466275596,0.0000000000,0.0000000000
0.0000000000,0.1661779165,0.0000000000,0.0000000000
0.0000000000,0.1857282543,0.0000000000,0.0000000000
0.0000000000,0.2150537729,0.0000000000,0.0000000000
0.0000000000,0.2248289346,0.0000000000,0.0000000000
0.0000000000,0.2150537729,0.0000000000,0.0000000000
0.0000000000,0.2248289346,0.0000000000,0.0000000000
0.0000000000,0.2346040964,0.0000000000,0.0000000000
0.0000000000,0.2541544437,0.0000000000,0.0000000000
0.0000000000,0.2834799575,0.0000000000,0.0000000000
0.0000000000,0.2737047910,0.0000000000,0.0097751703
0.0000000000,0.2737047910,0.0000000000,0.0097751703
0.0000000000,0.2443792819,0.0000000000,0.0000000000
0.0000000000,0.2346040964,0.0000000000,0.0000000000
0.0000000000,0.2052785873,0.0000000000,0.0000000000
0.0000000000,0.1857282543,0.0000000000,0.0000000000
0.0000000000,0.1857282543,0.0000000000,0.0000000000
0.0000000000,0.1759530782,0.0000000000,0.0000000000
0.0000000000,0.1661779165,0.0000000000,0.0000000000
0.0000000000,0.1661779165,0.0000000000,0.0000000000
0.0000000000,0.1564027309,0.0000000000,0.0000000000
0.0000000000,0.1368523955,0.0000000000,0.0000000000
0.0000000000,0.1173020482,0.0000000000,0.0000000000
0.0000000000,0.1173020482,0.0000000000,0.0000000000
0.0000000000,0.1075268864,0.0000000000,0.0000000000
0.0000000000,0.1075268864,0.0000000000,0.0000000000
0.0000000000,0.0977517032,0.0000000000,0.0000000000
0.0000000000,0.0977517032,0.0000000000,0.0000000000
0.0000000000,0.0977517032,0.0000000000,0.0000000000
0.0000000000,0.0879765415,0.0000000000,0.0000000000
0.0000000000,0.0879765415,0.0000000000,0.0000000000
0.0000000000,0.0977517032,0.0000000000,0.0000000000
0.0000000000,0.0977517032,0.0000000000,0.0000000000
0.0000000000,0.0782013654,0.0000000000,0.0000000000
0.0000000000,0.0879765415,0.0000000000,0.0000000000
0.0000000000,0.0782013654,0.0000000000,0.0000000000
0.0000000000,0.0684261989,0.0000000000,0.0000000000
0.0000000000,0.0586510229,0.0000000000,0.0000000000
0.0000000000,0.0684261989,0.0000000000,0.0000000000
0.0000000000,0.0586510229,0.0000000000,0.0000000000
0.0000000000,0.0488758516,0.0000000000,0.0000000000
0.0000000000,0.0488758516,0.0000000000,0.0000000000
0.0000000000,0.0488758516,0.0000000000,0.0000000000
0.0000000000,0.0488758516,0.0000000000,0.0000000000
0.0000000000,0.0488758516,0.0000000000,0.0000000000
0.0000000000,0.0488758516,0.0000000000,0.0000000000
0.0000000000,0.0488758516,0.0000000000,0.0000000000
0.0000000000,0.0488758516,0.0000000000,0.0097751703
0.0000000000,0.0488758516,0.0000000000,0.0097751703
0.0000000000,0.0391006832,0.0000000000,0.0097751703
0.0000000000,0.0488758516,0.0000000000,0.0097751703
0.0000000000,0.0488758516,0.0000000000,0.0097751703
0.0000000000,0.0488758516,0.0000000000,0.0195503416
0.0000000000,0.0391006832,0.0000000000,0.0195503416
0.0000000000,0.0391006832,0.0000000000,0.0195503416
0.0000000000,0.0586510229,0.0000000000,0.0195503416
0.0000000000,0.0488758516,0.0000000000,0.0293255119
0.0000000000,0.0488758516,0.0000000000,0.0293255119
0.0000000000,0.0391006832,0.0000000000,0.0293255119
0.0000000000,0.0391006832,0.0000000000,0.0293255119
0.0000000000,0.0293255119,0.0000000000,0.0293255119
0.0000000000,0.0293255119,0.0000000000,0.0391006832
0.0000000000,0.0293255119,0.0000000000,0.0391006832
0.0000000000,0.0293255119,0.0000000000,0.0293255119
0.0000000000,0.0195503416,0.0000000000,0.0293255119
0.0000000000,0.0195503416,0.0000000000,0.0391006832
0.0000000000,0.0195503416,0.0000000000,0.0488758516
0.0000000000,0.0195503416,0.0000000000,0.0391006832
0.0000000000,0.0195503416,0.0000000000,0.0391006832
0.0000000000,0.0195503416,0.0000000000,0.0488758516
0.0000000000,0.0195503416,0.0000000000,0.0391006832
0.0000000000,0.0195503416,0.0000000000,0.0391006832
0.0000000000,0.0097751703,0.0000000000,0.0391006832
0.0000000000,0.0195503416,0.0000000000,0.0293255119
0.0000000000,0.0097751703,0.0000000000,0.0391006832
0.0000000000,0.0097751703,0.0000000000,0.0293255119
0.0000000000,0.0097751703,0.0000000000,0.0293255119
0.0000000000,0.0097751703,0.0000000000,0.0195503416
0.0000000000,0.0097751703,0.0000000000,0.0195503416
0.0000000000,0.0097751703,0.0000000000,0.0195503416
0.0000000000,0.0097751703,0.0000000000,0.0195503416
0.0000000000,0.0097751703,0.0000000000,0.0195503416
0.0000000000,0.0097751703,0.0000000000,0.0097751703
0.0000000000,0.0097751703,0.0000000000,0.0097751703
0.0000000000,0.0097751703,0.0000000000,0.0195503416
0.0000000000,0.0097751703,0.0000000000,0.0195503416
0.0000000000,0.0097751703,0.0000000000,0.0097751703
0.0000000000,0.0097751703,0.0000000000,0.0097751703
0.0000000000,0.0097751703,0.0000000000,0.0097751703
0.0000000000,0.0097751703,0.0000000000,0.0097751703
0.0000000000,0.0097751703,0.0000000000,0.0097751703
0.0000000000,0.0097751703,0.0000000000,0.0097751703
0.0000000000,0.0097751703,0.0000000000,0.0097751703
0.0000000000,0.0195503416,0.0000000000,0.0097751703
0.0000000000,0.0097751703,0.0000000000,0.0000000000
0.0000000000,0.0097751703,0.0000000000,0.0000000000
0.0000000000,0.0097751703,0.0000000000,0.0000000000
0.0000000000,0.0097751703,0.0000000000,0.0000000000
0.0000000000,0.0097751703,0.0000000000,0.0000000000
0.0000000000,0.0097751703,0.0000000000,0.0000000000
0.0000000000,0.0195503416,0.0000000000,0.0000000000
0.0000000000,0.0097751703,0.0000000000,0.0000000000
0.0000000000,0.0195503416,0.0000000000,0.0000000000
0.0000000000,0.0391006832,0.0000000000,0.0000000000
0.0000000000,0.0586510229,0.0000000000,0.0000000000
0.0000000000,0.0684261989,0.0000000000,0.0000000000
0.0000000000,0.0782013654,0.0000000000,0.0000000000
0.0000000000,0.0879765415,0.0000000000,0.0000000000
0.0000000000,0.1270772218,0.0000000000,0.0000000000
0.0000000000,0.1368523955,0.0000000000,0.0000000000
0.0000000000,0.1368523955,0.0000000000,0.0000000000
0.0000000000,0.1466275596,0.0000000000,0.0000000000
0.0000000000,0.1661779165,0.0000000000,0.0000000000
0.0000000000,0.2150537729,0.0000000000,0.0000000000
0.0000000000,0.2150537729,0.0000000000,0.0000000000
0.0000000000,0.2150537729,0.0000000000,0.0000000000
0.0000000000,0.2248289346,0.0000000000,0.0000000000
0.0000000000,0.1955034160,0.0000000000,0.0000000000
0.0000000000,0.1759530782,0.0000000000,0.0000000000
0.0000000000,0.1759530782,0.0000000000,0.0000000000
0.0000000000,0.1759530782,0.0000000000,0.0000000000
0.0000000000,0.1759530782,0.0000000000,0.0000000000
0.0000000000,0.1857282543,0.0000000000,0.0000000000
0.0000000000,0.1564027309,0.0000000000,0.0000000000
0.0000000000,0.1661779165,0.0000000000,0.0000000000
0.0000000000,0.1759530782,0.0000000000,0.0000000000
0.0000000000,0.1661779165,0.0000000000,0.0000000000
0.0000000000,0.1564027309,0.0000000000,0.0000000000
0.0000000000,0.1466275596,0.0000000000,0.0000000000
0.0000000000,0.1368523955,0.0000000000,0.0000000000
0.0000000000,0.1173020482,0.0000000000,0.0000000000
0.0000000000,0.1075268864,0.0000000000,0.0000000000
0.0000000000,0.0879765415,0.0000000000,0.0000000000
0.0000000000,0.0879765415,0.0000000000,0.0000000000
0.0000000000,0.0782013654,0.0000000000,0.0000000000
0.0000000000,0.0684261989,0.0000000000,0.0000000000
0.0000000000,0.0684261989,0.0000000000,0.0000000000
0.0000000000,0.0586510229,0.0000000000,0.0000000000
0.0000000000,0.0586510229,0.0000000000,0.0000000000
0.0000000000,0.0586510229,0.0000000000,0.0000000000
0.0000000000,0.0488758516,0.0000000000,0.0000000000
0.0000000000,0.0586510229,0.0000000000,0.0000000000
0.0000000000,0.0488758516,0.0000000000,0.0000000000
0.0000000000,0.0488758516,0.0000000000,0.0000000000
0.0000000000,0.0586510229,0.0000000000,0.0000000000
0.0000000000,0.0488758516,0.0000000000,0.0000000000
0.0000000000,0.0488758516,0.0000000000,0.0000000000
0.0000000000,0.0488758516,0.0000000000,0.0000000000
0.0000000000,0.0488758516,0.0000000000,0.0000000000
0.0000000000,0.0586510229,0.0000000000,0.0097751703
0.0000000000,0.0488758516,0.0000000000,0.0000000000
0.0000000000,0.0488758516,0.0000000000,0.0000000000
0.0000000000,0.0488758516,0.0000000000,0.0000000000
0.0000000000,0.0586510229,0.0000000000,0.0000000000
0.0000000000,0.0586510229,0.0000000000,0.0097751703
0.0000000000,0.0488758516,0.0000000000,0.0097751703
0.0000000000,0.0488758516,0.0000000000,0.0195503416
0.0000000000,0.0488758516,0.0000000000,0.0195503416
0.0000000000,0.0391006832,0.0000000000,0.0293255119
0.0000000000,0.0391006832,0.0000000000,0.0293255119
0.0000000000,0.0391006832,0.0000000000,0.0391006832
0.0000000000,0.0293255119,0.0000000000,0.0586510229
0.0000000000,0.0293255119,0.0000000000,0.0586510229
0.0000000000,0.0195503416,0.0000000000,0.0684261989
0.0000000000,0.0195503416,0.0000000000,0.0684261989
0.0000000000,0.0195503416,0.0000000000,0.0586510229
0.0000000000,0.0195503416,0.0000000000,0.0586510229
0.0000000000,0.0195503416,0.0000000000,0.0586510229
0.0000000000,0.0195503416,0.0000000000,0.0586510229
0.0000000000,0.0195503416,0.0000000000,0.0586510229
0.0000000000,0.0195503416,0.0000000000,0.0586510229
0.0000000000,0.0097751703,0.0000000000,0.0488758516
0.0000000000,0.0097751703,0.0000000000,0.0488758516
0.0000000000,0.0097751703,0.0000000000,0.0488758516
0.0000000000,0.0097751703,0.0000000000,0.0488758516
0.0000000000,0.0097751703,0.0000000000,0.0391006832
0.0000000000,0.0097751703,0.0000000000,0.0391006832
0.0000000000,0.0097751703,0.0000000000,0.0293255119
0.0000000000,0.0195503416,0.0000000000,0.0195503416
0.0000000000,0.0195503416,0.0000000000,0.0293255119
0.0000000000,0.0097751703,0.0000000000,0.0293255119
0.0000000000,0.0097751703,0.0000000000,0.0195503416
0.0000000000,0.0097751703,0.0000000000,0.0293255119
0.0000000000,0.0097751703,0.0000000000,0.0195503416
0.0000000000,0.0097751703,0.0000000000,0.0195503416
0.0000000000,0.0097751703,0.0000000000,0.0195503416
0.0000000000,0.0097751703,0.0000000000,0.0195503416
0.0000000000,0.0097751703,0.0000000000,0.0195503416
0.0000000000,0.0097751703,0.0000000000,0.0195503416
0.0000000000,0.0097751703,0.0000000000,0.0195503416
0.0000000000,0.0195503416,0.0000000000,0.0195503416
0.0000000000,0.0195503416,0.0000000000,0.0097751703
0.0000000000,0.0195503416,0.0000000000,0.0195503416
0.0000000000,0.0293255119,0.0000000000,0.0097751703
0.0000000000,0.0293255119,0.0000000000,0.0097751703
0.0000000000,0.0293255119,0.0000000000,0.0097751703
0.0000000000,0.0488758516,0.0000000000,0.0097751703
0.0000000000,0.0782013654,0.0000000000,0.0000000000
0.0000000000,0.0977517032,0.0000000000,0.0097751703
0.0000000000,0.1173020482,0.0000000000,0.0000000000
0.0000000000,0.1955034160,0.0000000000,0.0000000000
0.0000000000,0.1857282543,0.0000000000,0.0000000000
0.0000000000,0.2248289346,0.0000000000,0.0000000000
0.0000000000,0.2346040964,0.0000000000,0.0000000000
0.0000000000,0.2150537729,0.0000000000,0.0000000000
0.0000000000,0.2052785873,0.0000000000,0.0000000000
0.0000000000,0.2052785873,0.0000000000,0.0000000000
0.0000000000,0.2248289346,0.0000000000,0.0000000000
0.0000000000,0.2248289346,0.0000000000,0.0000000000
0.0000000000,0.2248289346,0.0000000000,0.0000000000
0.0000000000,0.2248289346,0.0000000000,0.0000000000
0.0000000000,0.2150537729,0.0000000000,0.0000000000
0.0000000000,0.1955034160,0.0000000000,0.0000000000
0.0000000000,0.2052785873,0.0000000000,0.0000000000
0.0000000000,0.1857282543,0.0000000000,0.0000000000
0.0000000000,0.1759530782,0.0000000000,0.0000000000
0.0000000000,0.1466275596,0.0000000000,0.0000000000
0.0000000000,0.1564027309,0.0000000000,0.0000000000
0.0000000000,0.1368523955,0.0000000000,0.0000000000
0.0000000000,0.1368523955,0.0000000000,0.0000000000
0.0000000000,0.1270772218,0.0000000000,0.0000000000
0.0000000000,0.1173020482,0.0000000000,0.0000000000
0.0000000000,0.1173020482,0.0000000000,0.0000000000
0.0000000000,0.0977517032,0.0000000000,0.0000000000
0.0000000000,0.0879765415,0.0000000000,0.0000000000
0.0000000000,0.0782013654,0.0000000000,0.0000000000
0.0000000000,0.0684261989,0.0000000000,0.0000000000
0.0000000000,0.0684261989,0.0000000000,0.0000000000
0.0000000000,0.0684261989,0.0000000000,0.0000000000
0.0000000000,0.0586510229,0.0000000000,0.0000000000
0.0000000000,0.0586510229,0.0000000000,0.0000000000
0.0000000000,0.0586510229,0.0000000000,0.0000000000
0.0000000000,0.0586510229,0.0000000000,0.0000000000
0.0000000000,0.0684261989,0.0000000000,0.0000000000
0.0000000000,0.0684261989,0.0000000000,0.0000000000
0.0000000000,0.0586510229,0.0000000000,0.0000000000
0.0000000000,0.0586510229,0.0000000000,0.0000000000
0.0000000000,0.0488758516,0.0000000000,0.0000000000
0.0000000000,0.0488758516,0.0000000000,0.0000000000
0.0000000000,0.0488758516,0.0000000000,0.0000000000
0.0000000000,0.0488758516,0.0000000000,0.0000000000
0.0000000000,0.0488758516,0.0000000000,0.0000000000
0.0000000000,0.0488758516,0.0000000000,0.0000000000
0.0000000000,0.0586510229,0.0000000000,0.0000000000
0.0000000000,0.0488758516,0.0000000000,0.0000000000
0.0000000000,0.0391006832,0.0000000000,0.0000000000
0.0000000000,0.0391006832,0.0000000000,0.0000000000
0.0000000000,0.0391006832,0.0000000000,0.0000000000
0.0000000000,0.0293255119,0.0000000000,0.0000000000
0.0000000000,0.0293255119,0.0000000000,0.0000000000
0.0000000000,0.0391006832,0.0000000000,0.0000000000
0.0000000000,0.0293255119,0.0000000000,0.0000000000
0.0000000000,0.0293255119,0.0000000000,0.0000000000
0.0000000000,0.0293255119,0.0000000000,0.0000000000
0.0000000000,0.0293255119,0.0000000000,0.0000000000
0.0000000000,0.0293255119,0.0000000000,0.0000000000
0.0000000000,0.0293255119,0.0000000000,0.0000000000
0.0000000000,0.0195503416,0.0000000000,0.0097751703
0.0000000000,0.0195503416,0.0000000000,0.0097751703
0.0000000000,0.0195503416,0.0000000000,0.0097751703
0.0000000000,0.0195503416,0.0000000000,0.0097751703
0.0000000000,0.0195503416,0.0000000000,0.0195503416
0.0000000000,0.0195503416,0.0000000000,0.0195503416
0.0000000000,0.0195503416,0.0000000000,0.0195503416
0.0000000000,0.0097751703,0.0000000000,0.0195503416
0.0000000000,0.0195503416,0.0000000000,0.0293255119
0.0000000000,0.0195503416,0.0000000000,0.0391006832
0.0000000000,0.0195503416,0.0000000000,0.0586510229
0.0000000000,0.0195503416,0.0000000000,0.0586510229
0.0097751703,0.0195503416,0.0000000000,0.0684261989
0.0000000000,0.0195503416,0.0000000000,0.0782013654
0.0000000000,0.0195503416,0.0000000000,0.0782013654
0.0000000000,0.0195503416,0.0000000000,0.0684261989
0.0000000000,0.0195503416,0.0000000000,0.0684261989
0.0000000000,0.0195503416,0.0000000000,0.0684261989
0.0000000000,0.0097751703,0.0000000000,0.0684261989
0.0000000000,0.0195503416,0.0000000000,0.0684261989
0.0000000000,0.0195503416,0.0000000000,0.0586510229
0.0000000000,0.0195503416,0.0000000000,0.0586510229
0.0000000000,0.0097751703,0.0000000000,0.0586510229
0.0000000000,0.0195503416,0.0000000000,0.0488758516
0.0000000000,0.0097751703,0.0000000000,0.0488758516
0.0000000000,0.0195503416,0.0000000000,0.0391006832
0.0000000000,0.0195503416,0.0000000000,0.0391006832
0.0000000000,0.0195503416,0.0000000000,0.0488758516
0.0000000000,0.0195503416,0.0000000000,0.0391006832
0.0000000000,0.0195503416,0.0000000000,0.0293255119
0.0000000000,0.0195503416,0.0000000000,0.0293255119
0.0000000000,0.0195503416,0.0000000000,0.0293255119
0.0000000000,0.0195503416,0.0000000000,0.0293255119
0.0000000000,0.0293255119,0.0000000000,0.0195503416
0.0000000000,0.0293255119,0.0000000000,0.0195503416
0.0000000000,0.0391006832,0.0000000000,0.0195503416
0.0000000000,0.0391006832,0.0000000000,0.0097751703
0.0000000000,0.0586510229,0.0000000000,0.0195503416
0.0000000000,0.0782013654,0.0000000000,0.0195503416
0.0000000000,0.0879765415,0.0000000000,0.0195503416
0.0000000000,0.0977517032,0.0000000000,0.0097751703
0.0000000000,0.1466275596,0.0000000000,0.0097751703
0.0000000000,0.1564027309,0.0000000000,0.0097751703
0.0000000000,0.1857282543,0.0000000000,0.0195503416
0.0000000000,0.2346040964,0.0000000000,0.0097751703
0.0000000000,0.2541544437,0.0000000000,0.0000000000
0.0000000000,0.2541544437,0.0000000000,0.0000000000
0.0000000000,0.2639296054,0.0000000000,0.0000000000
0.0000000000,0.2834799575,0.0000000000,0.0000000000
0.0000000000,0.3030303001,0.0000000000,0.0000000000
0.0000000000,0.3225806236,0.0000000000,0.0000000000
0.0000000000,0.3616813421,0.0000000000,0.0000000000
0.0000000000,0.3714565038,0.0000000000,0.0000000000
0.0000000000,0.3616813421,0.0000000000,0.0000000000
0.0000000000,0.3519061565,0.0000000000,0.0000000000
0.0000000000,0.4007820129,0.0000000000,0.0000000000
0.0000000000,0.3812316703,0.0000000000,0.0000000000
0.0000000000,0.3616813421,0.0000000000,0.0000000000
0.0000000000,0.3421309947,0.0000000000,0.0000000000
0.0000000000,0.3225806236,0.0000000000,0.0000000000
0.0000000000,0.3421309947,0.0000000000,0.0000000000
0.0000000000,0.3323558330,0.0000000000,0.0000000000
0.0000000000,0.3030303001,0.0000000000,0.0000000000
0.0000000000,0.2834799575,0.0000000000,0.0097751703
0.0000000000,0.2346040964,0.0000000000,0.0097751703
0.0000000000,0.2150537729,0.0000000000,0.0000000000
0.0000000000,0.1857282543,0.0000000000,0.0000000000
0.0000000000,0.1564027309,0.0000000000,0.0000000000
0.0000000000,0.1368523955,0.0000000000,0.0000000000
0.0000000000,0.1368523955,0.0000000000,0.0000000000
0.0000000000,0.1173020482,0.0000000000,0.0000000000
0.0000000000,0.1075268864,0.0000000000,0.0000000000
0.0000000000,0.1075268864,0.0000000000,0.0000000000
0.0000000000,0.1075268864,0.0000000000,0.0000000000
0.0000000000,0.1075268864,0.0000000000,0.0000000000
0.0000000000,0.0977517032,0.0000000000,0.0000000000
0.0000000000,0.0879765415,0.0000000000,0.0000000000
0.0000000000,0.0879765415,0.0000000000,0.0000000000
0.0000000000,0.0684261989,0.0000000000,0.0000000000
0.0000000000,0.0684261989,0.0000000000,0.0000000000
0.0000000000,0.0879765415,0.0000000000,0.0000000000
0.0000000000,0.0782013654,0.0000000000,0.0000000000
0.0000000000,0.0586510229,0.0000000000,0.0000000000
0.0000000000,0.0586510229,0.0000000000,0.0000000000
0.0000000000,0.0782013654,0.0000000000,0.0000000000
0.0000000000,0.0684261989,0.0000000000,0.0000000000
0.0000000000,0.0586510229,0.0000000000,0.0000000000
0.0000000000,0.0586510229,0.0000000000,0.0000000000
0.0000000000,0.0586510229,0.0000000000,0.0000000000
0.0000000000,0.0488758516,0.0000000000,0.0000000000
0.0000000000,0.0391006832,0.0000000000,0.0097751703
0.0000000000,0.0391006832,0.0000000000,0.0000000000
0.0000000000,0.0391006832,0.0000000000,0.0000000000
0.0000000000,0.0488758516,0.0000000000,0.0000000000
0.0000000000,0.0293255119,0.0000000000,0.0097751703
0.0000000000,0.0293255119,0.0000000000,0.0097751703
0.0000000000,0.0293255119,0.0000000000,0.0097751703
0.0000000000,0.0293255119,0.0000000000,0.0097751703
0.0000000000,0.0195503416,0.0000000000,0.0097751703
0.0000000000,0.0195503416,0.0000000000,0.0097751703
0.0000000000,0.0195503416,0.0000000000,0.0097751703
0.0000000000,0.0195503416,0.0000000000,0.0195503416
0.0000000000,0.0195503416,0.0000000000,0.0293255119
0.0000000000,0.0195503416,0.0000000000,0.0391006832
0.0000000000,0.0195503416,0.0000000000,0.0488758516
0.0000000000,0.0195503416,0.0000000000,0.0391006832
0.0000000000,0.0195503416,0.0000000000,0.0488758516
0.0000000000,0.0097751703,0.0000000000,0.0488758516
0.0000000000,0.0097751703,0.0000000000,0.0586510229
0.0000000000,0.0195503416,0.0000000000,0.0586510229
0.0000000000,0.0195503416,0.0000000000,0.0586510229
0.0000000000,0.0195503416,0.0000000000,0.0586510229
0.0000000000,0.0097751703,0.0000000000,0.0684261989
0.0000000000,0.0097751703,0.0000000000,0.0684261989
0.0000000000,0.0097751703,0.0000000000,0.0586510229
0.0000000000,0.0097751703,0.0000000000,0.0488758516
0.0000000000,0.0097751703,0.0000000000,0.0488758516
0.0000000000,0.0097751703,0.0000000000,0.0391006832
0.0000000000,0.0195503416,0.0000000000,0.0391006832
0.0000000000,0.0293255119,0.0000000000,0.0391006832
0.0000000000,0.0391006832,0.0000000000,0.0293255119
0.0000000000,0.0879765415,0.0000000000,0.0391006832
0.0000000000,0.1075268864,0.0000000000,0.0391006832
0.0000000000,0.1955034160,0.0000000000,0.0391006832
0.0000000000,0.2150537729,0.0000000000,0.0391006832
0.0000000000,0.2737047910,0.0000000000,0.0391006832
0.0000000000,0.3519061565,0.0000000000,0.0488758516
0.0000000000,0.3812316703,0.0000000000,0.0391006832
0.0000000000,0.3714565038,0.0000000000,0.0391006832
0.0000000000,0.3616813421,0.0000000000,0.0391006832
0.0000000000,0.3616813421,0.0000000000,0.0391006832
0.0000000000,0.3421309947,0.0000000000,0.0391006832
0.0000000000,0.3030303001,0.0000000000,0.0391006832
0.0000000000,0.2932551193,0.0000000000,0.0488758516
0.0000000000,0.2834799575,0.0000000000,0.0391006832
0.0000000000,0.2932551193,0.0000000000,0.0391006832
0.0000000000,0.2834799575,0.0000000000,0.0391006832
0.0000000000,0.3030303001,0.0000000000,0.0293255119
0.0000000000,0.2932551193,0.0000000000,0.0293255119
0.0000000000,0.2737047910,0.0000000000,0.0391006832
0.0000000000,0.2541544437,0.0000000000,0.0391006832
0.0000000000,0.2737047910,0.0000000000,0.0293255119
0.0000000000,0.2834799575,0.0000000000,0.0391006832
0.0000000000,0.2737047910,0.0000000000,0.0391006832
0.0000000000,0.2932551193,0.0000000000,0.0293255119
0.0000000000,0.2737047910,0.0000000000,0.0195503416
0.0000000000,0.2541544437,0.0000000000,0.0195503416
0.0000000000,0.2150537729,0.0000000000,0.0195503416
0.0000000000,0.2052785873,0.0000000000,0.0097751703
0.0000000000,0.1759530782,0.0000000000,0.0195503416
0.0000000000,0.1466275596,0.0000000000,0.0097751703
0.0000000000,0.1368523955,0.0000000000,0.0097751703
0.0000000000,0.1270772218,0.0000000000,0.0097751703
0.0000000000,0.1270772218,0.0000000000,0.0097751703
0.0000000000,0.1173020482,0.0000000000,0.0097751703
0.0000000000,0.1075268864,0.0000000000,0.0097751703
0.0000000000,0.0977517032,0.0000000000,0.0097751703
0.0000000000,0.0879765415,0.0000000000,0.0000000000
0.0000000000,0.0782013654,0.0000000000,0.0000000000
0.0000000000,0.0782013654,0.0000000000,0.0097751703
0.0000000000,0.0684261989,0.0000000000,0.0097751703
0.0000000000,0.0684261989,0.0000000000,0.0000000000
0.0000000000,0.0684261989,0.0000000000,0.0000000000
0.0000000000,0.0684261989,0.0000000000,0.0000000000
0.0000000000,0.0879765415,0.0000000000,0.0000000000
0.0000000000,0.0684261989,0.0000000000,0.0000000000
0.0000000000,0.0782013654,0.0000000000,0.0000000000
0.0000000000,0.0782013654,0.0000000000,0.0097751703
0.0000000000,0.0684261989,0.0000000000,0.0097751703
0.0000000000,0.0684261989,0.0000000000,0.0000000000
0.0000000000,0.0782013654,0.0000000000,0.0000000000
0.0000000000,0.0684261989,0.0000000000,0.0000000000
0.0000000000,0.0586510229,0.0000000000,0.0097751703
0.0000000000,0.0488758516,0.0000000000,0.0097751703
0.0000000000,0.0488758516,0.0000000000,0.0097751703
0.0000000000,0.0391006832,0.0000000000,0.0097751703
0.0000000000,0.0391006832,0.0000000000,0.0000000000
0.0000000000,0.0293255119,0.0000000000,0.0000000000
0.0000000000,0.0293255119,0.0000000000,0.0000000000
0.0000000000,0.0293255119,0.0000000000,0.0000000000
0.0000000000,0.0195503416,0.0000000000,0.0000000000
0.0000000000,0.0195503416,0.0000000000,0.0000000000
0.0000000000,0.0195503416,0.0000000000,0.0000000000
0.0000000000,0.0195503416,0.0000000000,0.0000000000
0.0000000000,0.0195503416,0.0000000000,0.0000000000
0.0000000000,0.0195503416,0.0000000000,0.0000000000
0.0000000000,0.0195503416,0.0000000000,0.0000000000
0.0000000000,0.0195503416,0.0000000000,0.0000000000
0.0000000000,0.0195503416,0.0000000000,0.0097751703
0.0000000000,0.0195503416,0.0000000000,0.0097751703
0.0000000000,0.0097751703,0.0000000000,0.0000000000
0.0000000000,0.0097751703,0.0000000000,0.0000000000
0.0000000000,0.0195503416,0.0000000000,0.0000000000
0.0000000000,0.0195503416,0.0000000000,0.0000000000
0.0000000000,0.0195503416,0.0000000000,0.0097751703
0.0000000000,0.0195503416,0.0000000000,0.0000000000
0.0000000000,0.0097751703,0.0000000000,0.0000000000
0.0000000000,0.0097751703,0.0000000000,0.0097751703
0.0000000000,0.0195503416,0.0000000000,0.0097751703
0.0000000000,0.0195503416,0.0000000000,0.0097751703
0.0000000000,0.0195503416,0.0000000000,0.0097751703
0.0000000000,0.0195503416,0.0000000000,0.0097751703
0.0000000000,0.0195503416,0.0000000000,0.0097751703
0.0000000000,0.0195503416,0.0000000000,0.0195503416
0.0000000000,0.0293255119,0.0000000000,0.0195503416
0.0000000000,0.0293255119,0.0000000000,0.0195503416
0.0000000000,0.0293255119,0.0000000000,0.0293255119
0.0000000000,0.0684261989,0.0000000000,0.0488758516
0.0000000000,0.0977517032,0.0000000000,0.0782013654
0.0000000000,0.0977517032,0.0000000000,0.0977517032
0.0000000000,0.1466275596,0.0000000000,0.0782013654
0.0000000000,0.1661779165,0.0000000000,0.0879765415
0.0000000000,0.1661779165,0.0000000000,0.0879765415
0.0000000000,0.1759530782,0.0000000000,0.0879765415
0.0000000000,0.1857282543,0.0000000000,0.0782013654
0.0000000000,0.1955034160,0.0000000000,0.0684261989
0.0000000000,0.2248289346,0.0000000000,0.0684261989
0.0000000000,0.3030303001,0.0000000000,0.0782013654
0.0000000000,0.3519061565,0.0000000000,0.0782013654
0.0000000000,0.3519061565,0.0000000000,0.0684261989
0.0000000000,0.3323558330,0.0000000000,0.0684261989
0.0000000000,0.3421309947,0.0000000000,0.0586510229
0.0000000000,0.3421309947,0.0000000000,0.0488758516
0.0000000000,0.3812316703,0.0000000000,0.0391006832
0.0000000000,0.3616813421,0.0000000000,0.0391006832
0.0000000000,0.3519061565,0.0000000000,0.0488758516
0.0000000000,0.3714565038,0.0000000000,0.0391006832
0.0000000000,0.3812316703,0.0000000000,0.0391006832
0.0000000000,0.3616813421,0.0000000000,0.0391006832
0.0000000000,0.3812316703,0.0000000000,0.0293255119
0.0000000000,0.3616813421,0.0000000000,0.0293255119
0.0000000000,0.3323558330,0.0000000000,0.0293255119
0.0000000000,0.3225806236,0.0000000000,0.0293255119
0.0000000000,0.3030303001,0.0000000000,0.0195503416
0.0000000000,0.2639296054,0.0000000000,0.0195503416
0.0000000000,0.2443792819,0.0000000000,0.0293255119
0.0000000000,0.2346040964,0.0000000000,0.0293255119
0.0000000000,0.2248289346,0.0000000000,0.0293255119
0.0000000000,0.1955034160,0.0000000000,0.0195503416
0.0000000000,0.1857282543,0.0000000000,0.0195503416
0.0000000000,0.1564027309,0.0000000000,0.0097751703
0.0000000000,0.1368523955,0.0000000000,0.0097751703
0.0000000000,0.1173020482,0.0000000000,0.0097751703
0.0000000000,0.1270772218,0.0000000000,0.0195503416
0.0000000000,0.1173020482,0.0000000000,0.0097751703
0.0000000000,0.0977517032,0.0000000000,0.0097751703
0.0000000000,0.0977517032,0.0000000000,0.0195503416
0.0000000000,0.1075268864,0.0000000000,0.0195503416
0.0000000000,0.0879765415,0.0000000000,0.0097751703
0.0000000000,0.0879765415,0.0000000000,0.0097751703
0.0000000000,0.0782013654,0.0000000000,0.0097751703
0.0000000000,0.0879765415,0.0000000000,0.0097751703
0.0000000000,0.0879765415,0.0000000000,0.0097751703
0.0000000000,0.0782013654,0.0000000000,0.0097751703
0.0000000000,0.0684261989,0.0000000000,0.0097751703
0.0000000000,0.0586510229,0.0000000000,0.0097751703
0.0000000000,0.0586510229,0.0000000000,0.0097751703
0.0000000000,0.0684261989,0.0000000000,0.0000000000
0.0000000000,0.0586510229,0.0000000000,0.0097751703
0.0000000000,0.0488758516,0.0000000000,0.0097751703
0.0000000000,0.0488758516,0.0000000000,0.0000000000
0.0000000000,0.0391006832,0.0000000000,0.0000000000
0.0000000000,0.0488758516,0.0000000000,0.0000000000
0.0000000000,0.0488758516,0.0000000000,0.0000000000
0.0000000000,0.0488758516,0.0000000000,0.0000000000
0.0000000000,0.0391006832,0.0000000000,0.0000000000
0.0000000000,0.0391006832,0.0000000000,0.0000000000
0.0000000000,0.0391006832,0.0000000000,0.0000000000
0.0000000000,0.0293255119,0.0000000000,0.0000000000
0.0000000000,0.0293255119,0.0000000000,0.0000000000
0.0000000000,0.0293255119,0.0000000000,0.0000000000
0.0000000000,0.0293255119,0.0000000000,0.0000000000
0.0000000000,0.0195503416,0.0000000000,0.0000000000
0.0000000000,0.0195503416,0.0000000000,0.0000000000
0.0000000000,0.0293255119,0.0000000000,0.0000000000
0.0000000000,0.0293255119,0.0000000000,0.0000000000
0.0000000000,0.0293255119,0.0000000000,0.0000000000
0.0000000000,0.0195503416,0.0000000000,0.0000000000
0.0000000000,0.0195503416,0.0000000000,0.0000000000
0.0000000000,0.0195503416,0.0000000000,0.0000000000
0.0000000000,0.0195503416,0.0000000000,0.0000000000
0.0000000000,0.0195503416,0.0000000000,0.0000000000
0.0000000000,0.0195503416,0.0000000000,0.0000000000
0.0000000000,0.0195503416,0.0000000000,0.0000000000
0.0000000000,0.0195503416,0.0000000000,0.0000000000
0.0000000000,0.0195503416,0.0000000000,0.0000000000
0.0000000000,0.0195503416,0.0000000000,0.0000000000
0.0000000000,0.0195503416,0.0000000000,0.0000000000
0.0000000000,0.0195503416,0.0000000000,0.0000000000
0.0000000000,0.0097751703,0.0000000000,0.0000000000
0.0000000000,0.0097751703,0.0000000000,0.0000000000
0.0000000000,0.0097751703,0.0000000000,0.0000000000
0.0000000000,0.0097751703,0.0000000000,0.0000000000
0.0000000000,0.0097751703,0.0000000000,0.0000000000
0.0000000000,0.0195503416,0.0000000000,0.0000000000
0.0000000000,0.0195503416,0.0000000000,0.0000000000
0.0000000000,0.0195503416,0.0000000000,0.0000000000
0.0000000000,0.0195503416,0.0000000000,0.0000000000
0.0000000000,0.0195503416,0.0000000000,0.0000000000
0.0000000000,0.0195503416,0.0000000000,0.0000000000
0.0000000000,0.0195503416,0.0000000000,0.0000000000
0.0000000000,0.0195503416,0.0000000000,0.0097751703
0.0000000000,0.0195503416,0.0000000000,0.0097751703
0.0000000000,0.0391006832,0.0000000000,0.0195503416
0.0097751703,0.0879765415,0.0000000000,0.0195503416
0.0000000000,0.1075268864,0.0000000000,0.0293255119
0.0097751703,0.1564027309,0.0000000000,0.0195503416
0.0097751703,0.1564027309,0.0000000000,0.0195503416
0.0097751703,0.1857282543,0.0000000000,0.0195503416
0.0000000000,0.1955034160,0.0000000000,0.0293255119
0.0000000000,0.2052785873,0.0000000000,0.0293255119
0.0097751703,0.1955034160,0.0000000000,0.0293255119
0.0097751703,0.1955034160,0.0000000000,0.0293255119
0.0000000000,0.1857282543,0.0000000000,0.0293255119
0.0000000000,0.1857282543,0.0000000000,0.0391006832
0.0097751703,0.2248289346,0.0000000000,0.0391006832
0.0097751703,0.2248289346,0.0000000000,0.0391006832
0.0000000000,0.2443792819,0.0000000000,0.0391006832
0.0000000000,0.2443792819,0.0000000000,0.0391006832
0.0000000000,0.2541544437,0.0000000000,0.0391006832
0.0000000000,0.2639296054,0.0000000000,0.0293255119
0.0000000000,0.2639296054,0.0000000000,0.0293255119
0.0000000000,0.2834799575,0.0000000000,0.0391006832
0.0000000000,0.2639296054,0.0000000000,0.0488758516
0.0000000000,0.2639296054,0.0000000000,0.0488758516
0.0000000000,0.3128054618,0.0000000000,0.0684261989
0.0000000000,0.3225806236,0.0000000000,0.0684261989
0.0000000000,0.3519061565,0.0000000000,0.0684261989
0.0000000000,0.3323558330,0.0000000000,0.0782013654
0.0000000000,0.3323558330,0.0000000000,0.0879765415
0.0000000000,0.3225806236,0.0000000000,0.0782013654
0.0000000000,0.3128054618,0.0000000000,0.0782013654
0.0000000000,0.3030303001,0.0000000000,0.0977517032
0.0000000000,0.2932551193,0.0000000000,0.0977517032
0.0000000000,0.2834799575,0.0000000000,0.0977517032
0.0000000000,0.2541544437,0.0000000000,0.1075268864
0.0000000000,0.2443792819,0.0000000000,0.0977517032
0.0000000000,0.2150537729,0.0000000000,0.0977517032
0.0000000000,0.1955034160,0.0000000000,0.0977517032
0.0000000000,0.1759530782,0.0000000000,0.0879765415
0.0000000000,0.1466275596,0.0000000000,0.0977517032
0.0000000000,0.1270772218,0.0000000000,0.0879765415
0.0000000000,0.1173020482,0.0000000000,0.0782013654
0.0000000000,0.0977517032,0.0000000000,0.0684261989
0.0000000000,0.0879765415,0.0000000000,0.0684261989
0.0000000000,0.0977517032,0.0000000000,0.0684261989
0.0000000000,0.0782013654,0.0000000000,0.0684261989
0.0000000000,0.0782013654,0.0000000000,0.0586510229
0.0000000000,0.0879765415,0.0000000000,0.0586510229
0.0000000000,0.0879765415,0.0000000000,0.0488758516
0.0000000000,0.0782013654,0.0000000000,0.0488758516
0.0000000000,0.0782013654,0.0000000000,0.0488758516
0.0000000000,0.0879765415,0.0000000000,0.0488758516
0.0000000000,0.0782013654,0.0000000000,0.0488758516
0.0000000000,0.0782013654,0.0000000000,0.0391006832
0.0000000000,0.0782013654,0.0000000000,0.0391006832
0.0000000000,0.0782013654,0.0000000000,0.0391006832
0.0000000000,0.0684261989,0.0000000000,0.0488758516
0.0000000000,0.0684261989,0.0000000000,0.0488758516
0.0000000000,0.0684261989,0.0000000000,0.0391006832
0.0000000000,0.0782013654,0.0000000000,0.0391006832
0.0000000000,0.0684261989,0.0000000000,0.0391006832
0.0000000000,0.0684261989,0.0000000000,0.0391006832
0.0000000000,0.0586510229,0.0000000000,0.0488758516
0.0000000000,0.0586510229,0.0000000000,0.0391006832
0.0000000000,0.0586510229,0.0000000000,0.0391006832
0.0000000000,0.0488758516,0.0000000000,0.0293255119
0.0000000000,0.0488758516,0.0000000000,0.0293255119
0.0000000000,0.0391006832,0.0000000000,0.0293255119
0.0000000000,0.0391006832,0.0000000000,0.0293255119
0.0000000000,0.0293255119,0.0000000000,0.0195503416
0.0000000000,0.0293255119,0.0000000000,0.0293255119
0.0000000000,0.0293255119,0.0000000000,0.0195503416
0.0000000000,0.0293255119,0.0000000000,0.0195503416
0.0000000000,0.0195503416,0.0000000000,0.0195503416
0.0000000000,0.0195503416,0.0000000000,0.0195503416
0.0000000000,0.0195503416,0.0000000000,0.0293255119
0.0000000000,0.0195503416,0.0000000000,0.0195503416
0.0000000000,0.0195503416,0.0000000000,0.0195503416
0.0000000000,0.0195503416,0.0000000000,0.0195503416
0.0000000000,0.0195503416,0.0000000000,0.0097751703
0.0000000000,0.0195503416,0.0000000000,0.0195503416
0.0000000000,0.0195503416,0.0000000000,0.0195503416
0.0000000000,0.0195503416,0.0000000000,0.0195503416
0.0000000000,0.0195503416,0.0000000000,0.0195503416
0.0000000000,0.0195503416,0.0000000000,0.0293255119
0.0000000000,0.0195503416,0.0000000000,0.0293255119
0.0000000000,0.0195503416,0.0000000000,0.0195503416
0.0000000000,0.0195503416,0.0000000000,0.0195503416
0.0000000000,0.0195503416,0.0000000000,0.0097751703
0.0000000000,0.0097751703,0.0000000000,0.0097751703
0.0000000000,0.0097751703,0.0000000000,0.0097751703
0.0000000000,0.0097751703,0.0000000000,0.0097751703
0.0000000000,0.0195503416,0.0000000000,0.0097751703
0.0000000000,0.0097751703,0.0000000000,0.0097751703
0.0000000000,0.0097751703,0.0000000000,0.0097751703
0.0000000000,0.0097751703,0.0000000000,0.0097751703
0.0000000000,0.0195503416,0.0000000000,0.0097751703
0.0000000000,0.0195503416,0.0000000000,0.0000000000
0.0000000000,0.0195503416,0.0000000000,0.0000000000
0.0000000000,0.0488758516,0.0000000000,0.0000000000
0.0000000000,0.0586510229,0.0000000000,0.0000000000
0.0000000000,0.0977517032,0.0000000000,0.0000000000
0.0000000000,0.1075268864,0.0000000000,0.0000000000
0.0000000000,0.1466275596,0.0000000000,0.0000000000
0.0000000000,0.1759530782,0.0000000000,0.0000000000
0.0000000000,0.1955034160,0.0000000000,0.0000000000
0.0000000000,0.2052785873,0.0000000000,0.0097751703
0.0000000000,0.2150537729,0.0000000000,0.0000000000
0.0000000000,0.2248289346,0.0000000000,0.0097751703
0.0000000000,0.2052785873,0.0000000000,0.0293255119
0.0000000000,0.2248289346,0.0000000000,0.0293255119
0.0000000000,0.2443792819,0.0000000000,0.0293255119
0.0000000000,0.2639296054,0.0000000000,0.0293255119
0.0000000000,0.2639296054,0.0000000000,0.0293255119
0.0000000000,0.2737047910,0.0000000000,0.0195503416
0.0000000000,0.2834799575,0.0000000000,0.0195503416
0.0000000000,0.2932551193,0.0000000000,0.0195503416
0.0000000000,0.2834799575,0.0000000000,0.0293255119
0.0000000000,0.2639296054,0.0000000000,0.0293255119
0.0000000000,0.2737047910,0.0000000000,0.0391006832
0.0000000000,0.2834799575,0.0000000000,0.0293255119
0.0000000000,0.3225806236,0.0000000000,0.0293255119
0.0000000000,0.3030303001,0.0000000000,0.0293255119
0.0000000000,0.2932551193,0.0000000000,0.0293255119
0.0000000000,0.2737047910,0.0000000000,0.0293255119
0.0000000000,0.2443792819,0.0000000000,0.0293255119
0.0000000000,0.2346040964,0.0000000000,0.0391006832
0.0000000000,0.1955034160,0.0000000000,0.0293255119
0.0000000000,0.1857282543,0.0000000000,0.0293255119
0.0000000000,0.1564027309,0.0000000000,0.0293255119
0.0000000000,0.1466275596,0.0000000000,0.0391006832
0.0000000000,0.1270772218,0.0000000000,0.0488758516
0.0000000000,0.1173020482,0.0000000000,0.0488758516
0.0000000000,0.1075268864,0.0000000000,0.0684261989
0.0000000000,0.0977517032,0.0000000000,0.0684261989
0.0000000000,0.0977517032,0.0000000000,0.0586510229
0.0000000000,0.0879765415,0.0000000000,0.0586510229
0.0000000000,0.0879765415,0.0000000000,0.0586510229
0.0000000000,0.0879765415,0.0000000000,0.0586510229
0.0000000000,0.1075268864,0.0000000000,0.0684261989
0.0000000000,0.0879765415,0.0000000000,0.0586510229
0.0000000000,0.0879765415,0.0000000000,0.0488758516
0.0000000000,0.0782013654,0.0000000000,0.0586510229
0.0000000000,0.0684261989,0.0000000000,0.0684261989
0.0000000000,0.0586510229,0.0000000000,0.0586510229
0.0000000000,0.0586510229,0.0000000000,0.0488758516
0.0000000000,0.0782013654,0.0000000000,0.0586510229
0.0000000000,0.0684261989,0.0000000000,0.0586510229
0.0000000000,0.0684261989,0.0000000000,0.0488758516
0.0000000000,0.0586510229,0.0000000000,0.0488758516
0.0000000000,0.0684261989,0.0000000000,0.0488758516
0.0000000000,0.0684261989,0.0000000000,0.0586510229
0.0000000000,0.0586510229,0.0000000000,0.0488758516
0.0000000000,0.0684261989,0.0000000000,0.0488758516
0.0000000000,0.0586510229,0.0000000000,0.0488758516
0.0000000000,0.0586510229,0.0000000000,0.0488758516
0.0000000000,0.0488758516,0.0000000000,0.0488758516
0.0000000000,0.0488758516,0.0000000000,0.0391006832
0.0000000000,0.0488758516,0.0000000000,0.0586510229
0.0000000000,0.0391006832,0.0000000000,0.0488758516
0.0000000000,0.0488758516,0.0000000000,0.0488758516
0.0000000000,0.0391006832,0.0000000000,0.0488758516
0.0000000000,0.0391006832,0.0000000000,0.0391006832
0.0000000000,0.0391006832,0.0000000000,0.0293255119
0.0000000000,0.0391006832,0.0000000000,0.0293255119
0.0000000000,0.0293255119,0.0000000000,0.0195503416
0.0000000000,0.0293255119,0.0000000000,0.0293255119
0.0000000000,0.0293255119,0.0000000000,0.0195503416
0.0000000000,0.0195503416,0.0000000000,0.0195503416
0.0000000000,0.0195503416,0.0000000000,0.0293255119
0.0000000000,0.0195503416,0.0000000000,0.0293255119
0.0000000000,0.0195503416,0.0000000000,0.0391006832
0.0000000000,0.0195503416,0.0000000000,0.0293255119
0.0000000000,0.0195503416,0.0000000000,0.0293255119
0.0000000000,0.0195503416,0.0000000000,0.0293255119
0.0000000000,0.0097751703,0.0000000000,0.0293255119
0.0000000000,0.0097751703,0.0000000000,0.0195503416
0.0000000000,0.0097751703,0.0000000000,0.0293255119
0.0000000000,0.0097751703,0.0000000000,0.0195503416
0.0000000000,0.0097751703,0.0000000000,0.0195503416
0.0000000000,0.0097751703,0.0000000000,0.0195503416
0.0000000000,0.0097751703,0.0000000000,0.0195503416
0.0000000000,0.0097751703,0.0000000000,0.0293255119
0.0000000000,0.0097751703,0.0000000000,0.0195503416
0.0000000000,0.0097751703,0.0000000000,0.0195503416
0.0000000000,0.0097751703,0.0000000000,0.0293255119
0.0000000000,0.0097751703,0.0000000000,0.0195503416
0.0000000000,0.0097751703,0.0000000000,0.0195503416
0.0000000000,0.0097751703,0.0000000000,0.0195503416
0.0000000000,0.0097751703,0.0000000000,0.0195503416
0.0000000000,0.0097751703,0.0000000000,0.0195503416
0.0000000000,0.0097751703,0.0000000000,0.0097751703
0.0000000000,0.0097751703,0.0000000000,0.0097751703
0.0000000000,0.0195503416,0.0000000000,0.0195503416
0.0000000000,0.0195503416,0.0000000000,0.0195503416
0.0000000000,0.0195503416,0.0000000000,0.0195503416
0.0000000000,0.0293255119,0.0000000000,0.0195503416
0.0000000000,0.0391006832,0.0000000000,0.0097751703
0.0000000000,0.0488758516,0.0000000000,0.0097751703
0.0000000000,0.0684261989,0.0000000000,0.0097751703
0.0000000000,0.0782013654,0.0000000000,0.0097751703
0.0000000000,0.1173020482,0.0000000000,0.0000000000
0.0000000000,0.1368523955,0.0000000000,0.0000000000
0.0000000000,0.1466275596,0.0000000000,0.0000000000
0.0000000000,0.1564027309,0.0000000000,0.0000000000
0.0000000000,0.1661779165,0.0000000000,0.0097751703
0.0000000000,0.2248289346,0.0000000000,0.0097751703
0.0000000000,0.2248289346,0.0000000000,0.0097751703
0.0000000000,0.2150537729,0.0000000000,0.0097751703
0.0000000000,0.2248289346,0.0000000000,0.0000000000
0.0000000000,0.2639296054,0.0000000000,0.0000000000
0.0000000000,0.3128054618,0.0000000000,0.0000000000
0.0000000000,0.3128054618,0.0000000000,0.0000000000
0.0000000000,0.2737047910,0.0000000000,0.0000000000
0.0000000000,0.2932551193,0.0000000000,0.0000000000
0.0000000000,0.2932551193,0.0000000000,0.0000000000
0.0000000000,0.2737047910,0.0000000000,0.0000000000
0.0000000000,0.2639296054,0.0000000000,0.0000000000
0.0000000000,0.2834799575,0.0000000000,0.0000000000
0.0000000000,0.2737047910,0.0000000000,0.0000000000
0.0000000000,0.2443792819,0.0000000000,0.0000000000
0.0000000000,0.2248289346,0.0000000000,0.0000000000
0.0000000000,0.2248289346,0.0000000000,0.0000000000
0.0000000000,0.2052785873,0.0000000000,0.0000000000
0.0000000000,0.2052785873,0.0000000000,0.0000000000
0.0000000000,0.2150537729,0.0000000000,0.0000000000
0.0000000000,0.1955034160,0.0000000000,0.0000000000
0.0000000000,0.2052785873,0.0000000000,0.0000000000
0.0000000000,0.1857282543,0.0000000000,0.0000000000
0.0000000000,0.1564027309,0.0000000000,0.0000000000
0.0000000000,0.1466275596,0.0000000000,0.0000000000
0.0000000000,0.1270772218,0.0000000000,0.0000000000
0.0000000000,0.0977517032,0.0000000000,0.0000000000
0.0000000000,0.0977517032,0.0000000000,0.0000000000
0.0000000000,0.0879765415,0.0000000000,0.0000000000
0.0000000000,0.0879765415,0.0000000000,0.0000000000
0.0000000000,0.0782013654,0.0000000000,0.0000000000
0.0000000000,0.0684261989,0.0000000000,0.0000000000
0.0000000000,0.0879765415,0.0000000000,0.0000000000
0.0000000000,0.0782013654,0.0000000000,0.0000000000
0.0000000000,0.0586510229,0.0000000000,0.0000000000
0.0000000000,0.0684261989,0.0000000000,0.0000000000
0.0000000000,0.0684261989,0.0000000000,0.0097751703
0.0000000000,0.0586510229,0.0000000000,0.0000000000
0.0000000000,0.0586510229,0.0000000000,0.0000000000
0.0000000000,0.0488758516,0.0000000000,0.0000000000
0.0000000000,0.0488758516,0.0000000000,0.0097751703
0.0000000000,0.0586510229,0.0000000000,0.0097751703
0.0000000000,0.0586510229,0.0000000000,0.0097751703
0.0000000000,0.0586510229,0.0000000000,0.0000000000
0.0000000000,0.0586510229,0.0000000000,0.0000000000
0.0000000000,0.0488758516,0.0000000000,0.0097751703
0.0000000000,0.0488758516,0.0000000000,0.0097751703
0.0000000000,0.0391006832,0.0000000000,0.0195503416
0.0000000000,0.0488758516,0.0000000000,0.0195503416
0.0000000000,0.0488758516,0.0000000000,0.0195503416
0.0000000000,0.0391006832,0.0000000000,0.0195503416
0.0000000000,0.0391006832,0.0000000000,0.0293255119
0.0000000000,0.0293255119,0.0000000000,0.0293255119
0.0000000000,0.0293255119,0.0000000000,0.0391006832
0.0000000000,0.0293255119,0.0000000000,0.0488758516
0.0000000000,0.0293255119,0.0000000000,0.0391006832
0.0000000000,0.0293255119,0.0000000000,0.0391006832
0.0000000000,0.0293255119,0.0000000000,0.0391006832
0.0000000000,0.0293255119,0.0000000000,0.0488758516
0.0000000000,0.0293255119,0.0000000000,0.0488758516
0.0000000000,0.0195503416,0.0000000000,0.0488758516
0.0000000000,0.0293255119,0.0000000000,0.0586510229
0.0000000000,0.0195503416,0.0000000000,0.0586510229
0.0000000000,0.0195503416,0.0000000000,0.0488758516
0.0000000000,0.0195503416,0.0000000000,0.0586510229
0.0000000000,0.0097751703,0.0000000000,0.0684261989
0.0000000000,0.0195503416,0.0000000000,0.0586510229
0.0000000000,0.0195503416,0.0000000000,0.0488758516
0.0000000000,0.0195503416,0.0000000000,0.0586510229
0.0000000000,0.0195503416,0.0000000000,0.0488758516
0.0000000000,0.0097751703,0.0000000000,0.0488758516
0.0000000000,0.0097751703,0.0000000000,0.0391006832
0.0000000000,0.0097751703,0.0000000000,0.0488758516
0.0000000000,0.0097751703,0.0000000000,0.0391006832
0.0000000000,0.0097751703,0.0000000000,0.0293255119
0.0000000000,0.0097751703,0.0000000000,0.0293255119
0.0000000000,0.0195503416,0.0000000000,0.0293255119
0.0000000000,0.0097751703,0.0000000000,0.0195503416
0.0000000000,0.0097751703,0.0000000000,0.0195503416
0.0000000000,0.0195503416,0.0000000000,0.0195503416
0.0000000000,0.0195503416,0.0000000000,0.0293255119
0.0000000000,0.0195503416,0.0000000000,0.0293255119
0.0000000000,0.0293255119,0.0000000000,0.0195503416
0.0000000000,0.0391006832,0.0000000000,0.0195503416
0.0000000000,0.0684261989,0.0000000000,0.0195503416
0.0000000000,0.0977517032,0.0000000000,0.0195503416
0.0000000000,0.1173020482,0.0000000000,0.0195503416
0.0000000000,0.1368523955,0.0000000000,0.0195503416
0.0000000000,0.1466275596,0.0000000000,0.0293255119
0.0000000000,0.1759530782,0.0000000000,0.0293255119
0.0000000000,0.1955034160,0.0000000000,0.0293255119
0.0000000000,0.1759530782,0.0000000000,0.0293255119
0.0000000000,0.1759530782,0.0000000000,0.0195503416
0.0000000000,0.1661779165,0.0000000000,0.0195503416
0.0000000000,0.1759530782,0.0000000000,0.0195503416
0.0000000000,0.1857282543,0.0000000000,0.0195503416
0.0000000000,0.1759530782,0.0000000000,0.0195503416
0.0000000000,0.1857282543,0.0000000000,0.0195503416
0.0000000000,0.2150537729,0.0000000000,0.0195503416
0.0000000000,0.2248289346,0.0000000000,0.0195503416
0.0000000000,0.2834799575,0.0000000000,0.0097751703
0.0000000000,0.3030303001,0.0000000000,0.0097751703
0.0000000000,0.3030303001,0.0000000000,0.0195503416
0.0000000000,0.3030303001,0.0000000000,0.0195503416
0.0000000000,0.2834799575,0.0000000000,0.0097751703
0.0000000000,0.3030303001,0.0000000000,0.0097751703
0.0000000000,0.2932551193,0.0000000000,0.0097751703
0.0000000000,0.2834799575,0.0000000000,0.0097751703
0.0000000000,0.2346040964,0.0000000000,0.0097751703
0.0000000000,0.2248289346,0.0000000000,0.0097751703
0.0000000000,0.2346040964,0.0000000000,0.0097751703
0.0000000000,0.2052785873,0.0000000000,0.0097751703
0.0000000000,0.1759530782,0.0000000000,0.0097751703
0.0000000000,0.1759530782,0.0000000000,0.0097751703
0.0000000000,0.1466275596,0.0000000000,0.0195503416
0.0000000000,0.1270772218,0.0000000000,0.0293255119
0.0000000000,0.1368523955,0.0000000000,0.0195503416
0.0000000000,0.1270772218,0.0000000000,0.0293255119
0.0000000000,0.1075268864,0.0000000000,0.0293255119
0.0000000000,0.0977517032,0.0000000000,0.0293255119
0.0000000000,0.0977517032,0.0000000000,0.0488758516
0.0000000000,0.0782013654,0.0000000000,0.0391006832
0.0000000000,0.0684261989,0.0000000000,0.0391006832
0.0000000000,0.0586510229,0.0000000000,0.0488758516
0.0000000000,0.0586510229,0.0000000000,0.0684261989
0.0000000000,0.0488758516,0.0000000000,0.0684261989
0.0000000000,0.0488758516,0.0000000000,0.0684261989
0.0000000000,0.0488758516,0.0000000000,0.0879765415
0.0000000000,0.0586510229,0.0000000000,0.0879765415
0.0000000000,0.0586510229,0.0000000000,0.0782013654
0.0000000000,0.0684261989,0.0000000000,0.0782013654
0.0000000000,0.0684261989,0.0000000000,0.0977517032
0.0000000000,0.0782013654,0.0000000000,0.0879765415
0.0000000000,0.0782013654,0.0000000000,0.0782013654
0.0000000000,0.0782013654,0.0000000000,0.0782013654
0.0000000000,0.0782013654,0.0000000000,0.0782013654
0.0000000000,0.0782013654,0.0000000000,0.0684261989
0.0000000000,0.0782013654,0.0000000000,0.0782013654
0.0000000000,0.0782013654,0.0000000000,0.0684261989
0.0000000000,0.0782013654,0.0000000000,0.0684261989
0.0000000000,0.0684261989,0.0000000000,0.0684261989
0.0000000000,0.0684261989,0.0000000000,0.0684261989
0.0000000000,0.0684261989,0.0000000000,0.0488758516
0.0000000000,0.0684261989,0.0000000000,0.0488758516
0.0000000000,0.0586510229,0.0000000000,0.0391006832
0.0000000000,0.0488758516,0.0000000000,0.0391006832
0.0000000000,0.0488758516,0.0000000000,0.0391006832
0.0000000000,0.0586510229,0.0000000000,0.0293255119
0.0000000000,0.0586510229,0.0000000000,0.0391006832
0.0000000000,0.0488758516,0.0000000000,0.0391006832
0.0000000000,0.0488758516,0.0000000000,0.0488758516
0.0000000000,0.0391006832,0.0000000000,0.0488758516
0.0000000000,0.0391006832,0.0000000000,0.0586510229
0.0000000000,0.0391006832,0.0000000000,0.0782013654
0.0000000000,0.0391006832,0.0000000000,0.0684261989
0.0000000000,0.0391006832,0.0000000000,0.0684261989
0.0000000000,0.0293255119,0.0000000000,0.0684261989
0.0000000000,0.0293255119,0.0000000000,0.0782013654
0.0000000000,0.0391006832,0.0000000000,0.0782013654
0.0000000000,0.0391006832,0.0000000000,0.0684261989
0.0000000000,0.0488758516,0.0000000000,0.0782013654
0.0000000000,0.0488758516,0.0000000000,0.0977517032
0.0000000000,0.0391006832,0.0000000000,0.0977517032
0.0000000000,0.0391006832,0.0000000000,0.0977517032
0.0000000000,0.0391006832,0.0000000000,0.0977517032
0.0000000000,0.0293255119,0.0000000000,0.0977517032
0.0000000000,0.0195503416,0.0000000000,0.1075268864
0.0000000000,0.0293255119,0.0000000000,0.1368523955
0.0000000000,0.0293255119,0.0000000000,0.1466275596
0.0000000000,0.0293255119,0.0000000000,0.1270772218
0.0000000000,0.0293255119,0.0000000000,0.1270772218
0.0000000000,0.0195503416,0.0000000000,0.1173020482
0.0000000000,0.0195503416,0.0000000000,0.1173020482
0.0000000000,0.0097751703,0.0000000000,0.1173020482
0.0000000000,0.0195503416,0.0000000000,0.1075268864
0.0000000000,0.0195503416,0.0000000000,0.0879765415
0.0000000000,0.0195503416,0.0000000000,0.0782013654
0.0000000000,0.0293255119,0.0000000000,0.0684261989
0.0000000000,0.0391006832,0.0000000000,0.0782013654
0.0000000000,0.0488758516,0.0000000000,0.0977517032
0.0000000000,0.0488758516,0.0000000000,0.0782013654
0.0000000000,0.0488758516,0.0000000000,0.0684261989
0.0000000000,0.0782013654,0.0000000000,0.0782013654
0.0000000000,0.1270772218,0.0000000000,0.0684261989
0.0000000000,0.1270772218,0.0000000000,0.0684261989
0.0000000000,0.1466275596,0.0000000000,0.0684261989
0.0097751703,0.0097751703,0.0488758516,0.0000000000
0.8308895111,1.1339198350,0.1564027309,0.4496578693
0.6451612472,0.8993157386,0.1270772218,0.3616813421
0.5083088874,0.7038123130,0.0977517032,0.2932551193
0.4007820129,0.5571847438,0.0782013654,0.2443792819
0.3128054618,0.4496578693,0.0586510229,0.2052785873
0.2443792819,0.3519061565,0.0488758516,0.1759530782
0.1955034160,0.2834799575,0.0391006832,0.1466275596
0.1564027309,0.2248289346,0.0293255119,0.1173020482
0.1270772218,0.1857282543,0.0195503416,0.0977517032
0.0977517032,0.1466275596,0.0195503416,0.0782013654
0.0782013654,0.1270772218,0.0097751703,0.0684261989
0.0586510229,0.0977517032,0.0097751703,0.0684261989
0.0488758516,0.0879765415,0.0097751703,0.0586510229
0.0391006832,0.0684261989,0.0000000000,0.0488758516
0.0293255119,0.0684261989,0.0000000000,0.0391006832
0.0293255119,0.0586510229,0.0000000000,0.0391006832
0.0195503416,0.0488758516,0.0000000000,0.0391006832
0.0097751703,0.0391006832,0.0000000000,0.0293255119
0.0097751703,0.0586510229,0.0000000000,0.0195503416
0.0097751703,0.0586510229,0.0000000000,0.0195503416
0.0097751703,0.0684261989,0.0000000000,0.0195503416
0.0097751703,0.0684261989,0.0000000000,0.0195503416
0.0097751703,0.1270772218,0.0000000000,0.0097751703
0.0097751703,0.1661779165,0.0000000000,0.0195503416
0.0000000000,0.2052785873,0.0000000000,0.0195503416
0.0000000000,0.2052785873,0.0000000000,0.0195503416
0.0000000000,0.2150537729,0.0000000000,0.0195503416
0.0000000000,0.3030303001,0.0000000000,0.0097751703
0.0000000000,0.2932551193,0.0000000000,0.0097751703
0.0000000000,0.3128054618,0.0000000000,0.0097751703
0.0000000000,0.3030303001,0.0000000000,0.0097751703
0.0000000000,0.3030303001,0.0000000000,0.0195503416
0.0000000000,0.2737047910,0.0000000000,0.0097751703
0.0000000000,0.2834799575,0.0000000000,0.0097751703
0.0000000000,0.2737047910,0.0000000000,0.0097751703
0.0000000000,0.2639296054,0.0000000000,0.0097751703
0.0000000000,0.2541544437,0.0000000000,0.0097751703
0.0000000000,0.2541544437,0.0000000000,0.0097751703
0.0000000000,0.2248289346,0.0000000000,0.0097751703
0.0000000000,0.2150537729,0.0000000000,0.0097751703
0.0000000000,0.1955034160,0.0000000000,0.0097751703
0.0000000000,0.2150537729,0.0000000000,0.0195503416
0.0000000000,0.1857282543,0.0000000000,0.0097751703
0.0000000000,0.1857282543,0.0000000000,0.0195503416
0.0000000000,0.1661779165,0.0000000000,0.0195503416
0.0000000000,0.1564027309,0.0000000000,0.0097751703
0.0000000000,0.1466275596,0.0000000000,0.0097751703
0.0000000000,0.1368523955,0.0000000000,0.0097751703
0.0000000000,0.1173020482,0.0000000000,0.0097751703
0.0000000000,0.1075268864,0.0000000000,0.0097751703
0.0000000000,0.0977517032,0.0000000000,0.0097751703
0.0000000000,0.0977517032,0.0000000000,0.0097751703
0.0000000000,0.1075268864,0.0000000000,0.0097751703
0.0000000000,0.0977517032,0.0000000000,0.0195503416
0.0000000000,0.0977517032,0.0000000000,0.0195503416
0.0000000000,0.0879765415,0.0000000000,0.0195503416
0.0000000000,0.0879765415,0.0000000000,0.0195503416
0.0000000000,0.0879765415,0.0000000000,0.0195503416
0.0000000000,0.0879765415,0.0000000000,0.0097751703
0.0000000000,0.0879765415,0.0000000000,0.0097751703
0.0000000000,0.0684261989,0.0000000000,0.0097751703
0.0000000000,0.0684261989,0.0000000000,0.0195503416
0.0000000000,0.0684261989,0.0000000000,0.0293255119
0.0000000000,0.0684261989,0.0000000000,0.0195503416
0.0000000000,0.0488758516,0.0000000000,0.0195503416
0.0000000000,0.0488758516,0.0000000000,0.0293255119
0.0000000000,0.0586510229,0.0000000000,0.0293255119
0.0000000000,0.0586510229,0.0000000000,0.0293255119
0.0000000000,0.0684261989,0.0000000000,0.0293255119
0.0000000000,0.0684261989,0.0000000000,0.0293255119
0.0000000000,0.0586510229,0.0000000000,0.0293255119
0.0000000000,0.0586510229,0.0000000000,0.0293255119
0.0000000000,0.0586510229,0.0000000000,0.0293255119
0.0000000000,0.0586510229,0.0000000000,0.0293255119
0.0000000000,0.0586510229,0.0000000000,0.0391006832
0.0000000000,0.0586510229,0.0000000000,0.0488758516
0.0000000000,0.0586510229,0.0000000000,0.0586510229
0.0000000000,0.0488758516,0.0000000000,0.0684261989
0.0000000000,0.0488758516,0.0000000000,0.0684261989
0.0000000000,0.0391006832,0.0000000000,0.0684261989
0.0000000000,0.0391006832,0.0000000000,0.0977517032
0.0000000000,0.0391006832,0.0000000000,0.0977517032
0.0000000000,0.0293255119,0.0000000000,0.0977517032
0.0000000000,0.0293255119,0.0000000000,0.0977517032
0.0000000000,0.0293255119,0.0000000000,0.1075268864
0.0000000000,0.0293255119,0.0000000000,0.1075268864
0.0000000000,0.0293255119,0.0000000000,0.1075268864
0.0000000000,0.0293255119,0.0000000000,0.1270772218
0.0000000000,0.0293255119,0.0000000000,0.1173020482
0.0000000000,0.0195503416,0.0000000000,0.1270772218
0.0000000000,0.0195503416,0.0000000000,0.1173020482
0.0000000000,0.0195503416,0.0000000000,0.0977517032
0.0000000000,0.0195503416,0.0000000000,0.0879765415
0.0000000000,0.0195503416,0.0000000000,0.0879765415
0.0000000000,0.0195503416,0.0000000000,0.0782013654
0.0000000000,0.0195503416,0.0000000000,0.0684261989
0.0000000000,0.0195503416,0.0000000000,0.0879765415
0.0000000000,0.0195503416,0.0000000000,0.0782013654
0.0000000000,0.0097751703,0.0000000000,0.0684261989
0.0000000000,0.0195503416,0.0000000000,0.0586510229
0.0000000000,0.0195503416,0.0000000000,0.0586510229
0.0000000000,0.0195503416,0.0000000000,0.0391006832
0.0000000000,0.0195503416,0.0000000000,0.0391006832
0.0000000000,0.0293255119,0.0000000000,0.0391006832
0.0000000000,0.0293255119,0.0000000000,0.0488758516
0.0000000000,0.0391006832,0.0000000000,0.0391006832
0.0000000000,0.0488758516,0.0000000000,0.0293255119
0.0000000000,0.0782013654,0.0000000000,0.0293255119
0.0000000000,0.0782013654,0.0000000000,0.0391006832
0.0000000000,0.1368523955,0.0000000000,0.0391006832
0.0000000000,0.1759530782,0.0000000000,0.0391006832
0.0000000000,0.1759530782,0.0000000000,0.0293255119
0.0000000000,0.2052785873,0.0000000000,0.0293255119
0.0000000000,0.2443792819,0.0000000000,0.0488758516
0.0000000000,0.2346040964,0.0000000000,0.0391006832
0.0000000000,0.2737047910,0.0000000000,0.0391006832
0.0000000000,0.2639296054,0.0000000000,0.0293255119
0.0000000000,0.2834799575,0.0000000000,0.0391006832
0.0000000000,0.2932551193,0.0000000000,0.0293255119
0.0000000000,0.2932551193,0.0000000000,0.0293255119
0.0000000000,0.2834799575,0.0000000000,0.0195503416
0.0000000000,0.2737047910,0.0000000000,0.0293255119
0.0000000000,0.3128054618,0.0000000000,0.0195503416
0.0000000000,0.2834799575,0.0000000000,0.0195503416
0.0000000000,0.2541544437,0.0000000000,0.0195503416
0.0000000000,0.2541544437,0.0000000000,0.0195503416
0.0000000000,0.2248289346,0.0000000000,0.0293255119
0.0000000000,0.2346040964,0.0000000000,0.0293255119
0.0000000000,0.2248289346,0.0000000000,0.0195503416
0.0000000000,0.2052785873,0.0000000000,0.0195503416
0.0000000000,0.1857282543,0.0000000000,0.0097751703
0.0000000000,0.1759530782,0.0000000000,0.0195503416
0.0000000000,0.1564027309,0.0000000000,0.0195503416
0.0000000000,0.1368523955,0.0000000000,0.0097751703
0.0000000000,0.1270772218,0.0000000000,0.0097751703
0.0000000000,0.1270772218,0.0000000000,0.0097751703
0.0000000000,0.1173020482,0.0000000000,0.0097751703
0.0000000000,0.1173020482,0.0000000000,0.0097751703
0.0000000000,0.1173020482,0.0000000000,0.0097751703
0.0000000000,0.1075268864,0.0000000000,0.0097751703
0.0000000000,0.0977517032,0.0000000000,0.0097751703
0.0000000000,0.0977517032,0.0000000000,0.0097751703
0.0000000000,0.0977517032,0.0000000000,0.0097751703
0.0000000000,0.0879765415,0.0000000000,0.0097751703
0.0000000000,0.0879765415,0.0000000000,0.0097751703
0.0000000000,0.0879765415,0.0000000000,0.0097751703
0.0000000000,0.0782013654,0.0000000000,0.0293255119
0.0000000000,0.0782013654,0.0000000000,0.0195503416
0.0000000000,0.0684261989,0.0000000000,0.0195503416
0.0000000000,0.0684261989,0.0000000000,0.0195503416
0.0000000000,0.0684261989,0.0000000000,0.0195503416
0.0000000000,0.0684261989,0.0000000000,0.0195503416
0.0000000000,0.0684261989,0.0000000000,0.0293255119
0.0000000000,0.0586510229,0.0000000000,0.0293255119
0.0000000000,0.0586510229,0.0000000000,0.0195503416
0.0000000000,0.0586510229,0.0000000000,0.0195503416
0.0000000000,0.0586510229,0.0000000000,0.0097751703
0.0000000000,0.0586510229,0.0000000000,0.0097751703
0.0000000000,0.0586510229,0.0000000000,0.0293255119
0.0000000000,0.0586510229,0.0000000000,0.0293255119
0.0000000000,0.0586510229,0.0000000000,0.0293255119
0.0000000000,0.0586510229,0.0000000000,0.0195503416
0.0000000000,0.0684261989,0.0000000000,0.0195503416
0.0000000000,0.0586510229,0.0000000000,0.0195503416
0.0097751703,0.0488758516,0.0000000000,0.0293255119
0.0000000000,0.0488758516,0.0000000000,0.0391006832
0.0000000000,0.0488758516,0.0000000000,0.0391006832
0.0097751703,0.0488758516,0.0000000000,0.0488758516
0.0097751703,0.0488758516,0.0000000000,0.0391006832
0.0195503416,0.0391006832,0.0000000000,0.0391006832
0.0097751703,0.0293255119,0.0000000000,0.0586510229
0.0097751703,0.0293255119,0.0000000000,0.0684261989
0.0195503416,0.0195503416,0.0000000000,0.0684261989
0.0195503416,0.0195503416,0.0000000000,0.0684261989
0.0195503416,0.0195503416,0.0000000000,0.0782013654
0.0195503416,0.0195503416,0.0000000000,0.0586510229
0.0195503416,0.0391006832,0.0000000000,0.0586510229
0.0195503416,0.0391006832,0.0000000000,0.0782013654
0.0097751703,0.0391006832,0.0000000000,0.0684261989
0.0097751703,0.0293255119,0.0000000000,0.0879765415
0.0097751703,0.0195503416,0.0000000000,0.0879765415
0.0097751703,0.0195503416,0.0000000000,0.0782013654
0.0097751703,0.0293255119,0.0000000000,0.0879765415
0.0000000000,0.0195503416,0.0000000000,0.0879765415
0.0000000000,0.0195503416,0.0000000000,0.0879765415
0.0000000000,0.0293255119,0.0000000000,0.0977517032
0.0000000000,0.0195503416,0.0000000000,0.0977517032
0.0000000000,0.0195503416,0.0000000000,0.0977517032
0.0000000000,0.0293255119,0.0000000000,0.0782013654
0.0000000000,0.0195503416,0.0000000000,0.0879765415
0.0000000000,0.0293255119,0.0000000000,0.0684261989
0.0000000000,0.0195503416,0.0000000000,0.0684261989
0.0000000000,0.0195503416,0.0000000000,0.0684261989
0.0000000000,0.0195503416,0.0000000000,0.0684261989
0.0000000000,0.0195503416,0.0000000000,0.0684261989
0.0000000000,0.0195503416,0.0000000000,0.0586510229
0.0000000000,0.0195503416,0.0000000000,0.0391006832
0.0000000000,0.0293255119,0.0000000000,0.0391006832
0.0000000000,0.0391006832,0.0000000000,0.0488758516
0.0000000000,0.0586510229,0.0000000000,0.0488758516
0.0000000000,0.0782013654,0.0000000000,0.0488758516
0.0000000000,0.1075268864,0.0000000000,0.0488758516
0.0000000000,0.1368523955,0.0000000000,0.0488758516
0.0000000000,0.1955034160,0.0000000000,0.0586510229
0.0000000000,0.1857282543,0.0000000000,0.0586510229
0.0000000000,0.2150537729,0.0000000000,0.0488758516
0.0000000000,0.2150537729,0.0000000000,0.0391006832
0.0000000000,0.2443792819,0.0000000000,0.0391006832
0.0000000000,0.3225806236,0.0000000000,0.0293255119
0.0000000000,0.3030303001,0.0000000000,0.0293255119
0.0000000000,0.2834799575,0.0000000000,0.0195503416
0.0000000000,0.2834799575,0.0000000000,0.0195503416
0.0000000000,0.3128054618,0.0000000000,0.0195503416
0.0000000000,0.3030303001,0.0000000000,0.0195503416
0.0000000000,0.2834799575,0.0000000000,0.0195503416
0.0000000000,0.2639296054,0.0000000000,0.0195503416
0.0000000000,0.2346040964,0.0000000000,0.0195503416
0.0000000000,0.2248289346,0.0000000000,0.0195503416
0.0000000000,0.2052785873,0.0000000000,0.0195503416
0.0000000000,0.1955034160,0.0000000000,0.0097751703
0.0000000000,0.1857282543,0.0000000000,0.0097751703
0.0000000000,0.1661779165,0.0000000000,0.0195503416
0.0000000000,0.1564027309,0.0000000000,0.0195503416
0.0000000000,0.1368523955,0.0000000000,0.0195503416
0.0000000000,0.1173020482,0.0000000000,0.0195503416
0.0000000000,0.1173020482,0.0000000000,0.0195503416
0.0000000000,0.1075268864,0.0000000000,0.0097751703
0.0000000000,0.1075268864,0.0000000000,0.0097751703
0.0000000000,0.0977517032,0.0000000000,0.0097751703
0.0000000000,0.0879765415,0.0000000000,0.0097751703
0.0000000000,0.0782013654,0.0000000000,0.0097751703
0.0000000000,0.0879765415,0.0000000000,0.0097751703
0.0000000000,0.0879765415,0.0000000000,0.0097751703
0.0000000000,0.0879765415,0.0000000000,0.0097751703
0.0000000000,0.0879765415,0.0000000000,0.0097751703
0.0000000000,0.0782013654,0.0000000000,0.0097751703
0.0000000000,0.0879765415,0.0000000000,0.0097751703
0.0000000000,0.0782013654,0.0000000000,0.0097751703
0.0000000000,0.0879765415,0.0000000000,0.0097751703
0.0000000000,0.0684261989,0.0000000000,0.0097751703
0.0000000000,0.0684261989,0.0000000000,0.0097751703
0.0000000000,0.0586510229,0.0000000000,0.0097751703
0.0000000000,0.0586510229,0.0000000000,0.0000000000
0.0000000000,0.0488758516,0.0000000000,0.0000000000
0.0000000000,0.0488758516,0.0000000000,0.0000000000
0.0000000000,0.0488758516,0.0000000000,0.0000000000
0.0000000000,0.0488758516,0.0000000000,0.0000000000
0.0000000000,0.0488758516,0.0000000000,0.0000000000
0.0000000000,0.0488758516,0.0000000000,0.0000000000
0.0000000000,0.0586510229,0.0000000000,0.0000000000
0.0000000000,0.0488758516,0.0000000000,0.0000000000
0.0000000000,0.0488758516,0.0000000000,0.0000000000
0.0000000000,0.0488758516,0.0000000000,0.0000000000
0.0000000000,0.0586510229,0.0000000000,0.0000000000
0.0000000000,0.0488758516,0.0000000000,0.0000000000
0.0000000000,0.0488758516,0.0000000000,0.0000000000
0.0000000000,0.0488758516,0.0000000000,0.0000000000
0.0000000000,0.0391006832,0.0000000000,0.0097751703
0.0000000000,0.0391006832,0.0000000000,0.0000000000
0.0000000000,0.0391006832,0.0000000000,0.0097751703
0.0000000000,0.0293255119,0.0000000000,0.0097751703
0.0000000000,0.0293255119,0.0000000000,0.0195503416
0.0000000000,0.0293255119,0.0000000000,0.0097751703
0.0000000000,0.0293255119,0.0000000000,0.0293255119
0.0000000000,0.0293255119,0.0000000000,0.0293255119
0.0000000000,0.0195503416,0.0000000000,0.0293255119
0.0000000000,0.0195503416,0.0000000000,0.0195503416
0.0000000000,0.0195503416,0.0000000000,0.0195503416
0.0000000000,0.0195503416,0.0000000000,0.0195503416
0.0000000000,0.0195503416,0.0000000000,0.0293255119
0.0000000000,0.0195503416,0.0000000000,0.0391006832
0.0000000000,0.0195503416,0.0000000000,0.0391006832
0.0000000000,0.0195503416,0.0000000000,0.0684261989
0.0000000000,0.0293255119,0.0000000000,0.0684261989
0.0000000000,0.0293255119,0.0000000000,0.0879765415
0.0000000000,0.0293255119,0.0000000000,0.0977517032
0.0000000000,0.0293255119,0.0000000000,0.0977517032
0.0000000000,0.0293255119,0.0000000000,0.0977517032
0.0000000000,0.0488758516,0.0000000000,0.0977517032
0.0000000000,0.1075268864,0.0097751703,0.0977517032
0.0000000000,0.1270772218,0.0097751703,0.0782013654
0.0000000000,0.1368523955,0.0000000000,0.0879765415
0.0000000000,0.1564027309,0.0000000000,0.0684261989
0.0000000000,0.1759530782,0.0097751703,0.0684261989
0.0000000000,0.2248289346,0.0000000000,0.0782013654
0.0000000000,0.2541544437,0.0000000000,0.0684261989
0.0000000000,0.2346040964,0.0000000000,0.0586510229
0.0000000000,0.2737047910,0.0000000000,0.0586510229
0.0000000000,0.2639296054,0.0000000000,0.0488758516
0.0000000000,0.2834799575,0.0000000000,0.0391006832
0.0000000000,0.3519061565,0.0000000000,0.0488758516
0.0000000000,0.3714565038,0.0097751703,0.0391006832
0.0000000000,0.4007820129,0.0097751703,0.0391006832
0.0000000000,0.4594330310,0.0195503416,0.0293255119
0.0000000000,0.4203323364,0.0195503416,0.0391006832
0.0000000000,0.3714565038,0.0293255119,0.0293255119
0.0000000000,0.3519061565,0.0293255119,0.0293255119
0.0000000000,0.3225806236,0.0293255119,0.0195503416
0.0000000000,0.3030303001,0.0293255119,0.0195503416
0.0000000000,0.2737047910,0.0293255119,0.0195503416
0.0000000000,0.2737047910,0.0293255119,0.0195503416
0.0000000000,0.2346040964,0.0293255119,0.0293255119
0.0000000000,0.2150537729,0.0195503416,0.0195503416
0.0000000000,0.1759530782,0.0195503416,0.0195503416
0.0000000000,0.1759530782,0.0195503416,0.0097751703
0.0000000000,0.1564027309,0.0097751703,0.0097751703
0.0000000000,0.1368523955,0.0097751703,0.0195503416
0.0000000000,0.1368523955,0.0097751703,0.0097751703
0.0000000000,0.1368523955,0.0195503416,0.0097751703
0.0000000000,0.1173020482,0.0097751703,0.0097751703
0.0000000000,0.1270772218,0.0097751703,0.0097751703
0.0000000000,0.1173020482,0.0000000000,0.0097751703
0.0000000000,0.1075268864,0.0000000000,0.0097751703
0.0000000000,0.0977517032,0.0000000000,0.0195503416
0.0000000000,0.1075268864,0.0097751703,0.0195503416
0.0000000000,0.0977517032,0.0097751703,0.0097751703
0.0000000000,0.0879765415,0.0000000000,0.0097751703
0.0000000000,0.0782013654,0.0000000000,0.0000000000
0.0000000000,0.0782013654,0.0097751703,0.0097751703
0.0000000000,0.0879765415,0.0097751703,0.0097751703
0.0000000000,0.0782013654,0.0097751703,0.0097751703
0.0000000000,0.0684261989,0.0097751703,0.0000000000
0.0000000000,0.0684261989,0.0097751703,0.0000000000
0.0000000000,0.0684261989,0.0097751703,0.0000000000
0.0000000000,0.0586510229,0.0000000000,0.0000000000
0.0000000000,0.0586510229,0.0000000000,0.0000000000
0.0000000000,0.0586510229,0.0000000000,0.0000000000
0.0000000000,0.0586510229,0.0000000000,0.0000000000
0.0000000000,0.0684261989,0.0000000000,0.0000000000
0.0000000000,0.0586510229,0.0000000000,0.0000000000
0.0000000000,0.0586510229,0.0000000000,0.0000000000
0.0000000000,0.0586510229,0.0000000000,0.0000000000
0.0000000000,0.0391006832,0.0000000000,0.0000000000
0.0000000000,0.0391006832,0.0000000000,0.0000000000
0.0000000000,0.0488758516,0.0000000000,0.0000000000
0.0000000000,0.0488758516,0.0000000000,0.0000000000
0.0000000000,0.0391006832,0.0000000000,0.0000000000
0.0000000000,0.0391006832,0.0000000000,0.0000000000
0.0000000000,0.0391006832,0.0000000000,0.0000000000
0.0000000000,0.0293255119,0.0000000000,0.0000000000
0.0000000000,0.0293255119,0.0000000000,0.0000000000
0.0000000000,0.0293255119,0.0097751703,0.0000000000
0.0000000000,0.0293255119,0.0097751703,0.0000000000
0.0000000000,0.0195503416,0.0097751703,0.0000000000
0.0000000000,0.0195503416,0.0097751703,0.0000000000
0.0000000000,0.0195503416,0.0097751703,0.0000000000
0.0000000000,0.0195503416,0.0097751703,0.0000000000
0.0000000000,0.0195503416,0.0195503416,0.0000000000
0.0000000000,0.0195503416,0.0097751703,0.0000000000
0.0000000000,0.0195503416,0.0097751703,0.0000000000
0.0000000000,0.0195503416,0.0097751703,0.0000000000
0.0000000000,0.0195503416,0.0097751703,0.0000000000
0.0000000000,0.0195503416,0.0097751703,0.0097751703
0.0000000000,0.0195503416,0.0097751703,0.0097751703
0.0000000000,0.0195503416,0.0097751703,0.0097751703
0.0000000000,0.0293255119,0.0097751703,0.0097751703
0.0000000000,0.0195503416,0.0097751703,0.0097751703
0.0000000000,0.0195503416,0.0293255119,0.0195503416
0.0000000000,0.0195503416,0.0293255119,0.0195503416
0.0000000000,0.0195503416,0.0293255119,0.0195503416
0.0000000000,0.0293255119,0.0195503416,0.0195503416
0.0000000000,0.0488758516,0.0097751703,0.0195503416
0.0000000000,0.0879765415,0.0097751703,0.0195503416
0.0000000000,0.1173020482,0.0097751703,0.0195503416
0.0000000000,0.1173020482,0.0097751703,0.0293255119
0.0000000000,0.1368523955,0.0097751703,0.0293255119
0.0000000000,0.1759530782,0.0097751703,0.0586510229
0.0000000000,0.2150537729,0.0097751703,0.0586510229
0.0000000000,0.2541544437,0.0195503416,0.0488758516
0.0000000000,0.2932551193,0.0195503416,0.0684261989
0.0000000000,0.3030303001,0.0195503416,0.0684261989
0.0000000000,0.3910068321,0.0195503416,0.0684261989
0.0000000000,0.4594330310,0.0195503416,0.0684261989
0.0000000000,0.4594330310,0.0195503416,0.0684261989
0.0000000000,0.4398827075,0.0097751703,0.0586510229
0.0000000000,0.4203323364,0.0195503416,0.0684261989
0.0000000000,0.4105571746,0.0195503416,0.0684261989
0.0000000000,0.3812316703,0.0097751703,0.0684261989
0.0000000000,0.3421309947,0.0097751703,0.0684261989
0.0000000000,0.3616813421,0.0195503416,0.0586510229
0.0000000000,0.3812316703,0.0195503416,0.0586510229
0.0000000000,0.3714565038,0.0293255119,0.0488758516
0.0000000000,0.3225806236,0.0195503416,0.0391006832
0.0000000000,0.3225806236,0.0195503416,0.0391006832
0.0000000000,0.3128054618,0.0195503416,0.0391006832
0.0000000000,0.2639296054,0.0195503416,0.0391006832
0.0000000000,0.2346040964,0.0195503416,0.0293255119
0.0000000000,0.2052785873,0.0097751703,0.0293255119
0.0000000000,0.1759530782,0.0195503416,0.0195503416
0.0000000000,0.1661779165,0.0097751703,0.0293255119
0.0000000000,0.1564027309,0.0097751703,0.0195503416
0.0000000000,0.1466275596,0.0097751703,0.0195503416
0.0000000000,0.1270772218,0.0097751703,0.0195503416
0.0000000000,0.1173020482,0.0097751703,0.0195503416
0.0000000000,0.1075268864,0.0097751703,0.0195503416
0.0000000000,0.0977517032,0.0195503416,0.0195503416
0.0000000000,0.1075268864,0.0097751703,0.0195503416
0.0000000000,0.0879765415,0.0097751703,0.0097751703
0.0000000000,0.0782013654,0.0097751703,0.0195503416
0.0000000000,0.0879765415,0.0097751703,0.0293255119
0.0000000000,0.0782013654,0.0195503416,0.0195503416
0.0000000000,0.0879765415,0.0097751703,0.0195503416
0.0000000000,0.0782013654,0.0097751703,0.0195503416
0.0000000000,0.0684261989,0.0097751703,0.0097751703
0.0000000000,0.0586510229,0.0097751703,0.0195503416
0.0000000000,0.0586510229,0.0097751703,0.0195503416
0.0000000000,0.0586510229,0.0097751703,0.0097751703
0.0000000000,0.0586510229,0.0097751703,0.0097751703
0.0000000000,0.0684261989,0.0097751703,0.0195503416
0.0000000000,0.0684261989,0.0097751703,0.0195503416
0.0000000000,0.0684261989,0.0097751703,0.0097751703
0.0000000000,0.0586510229,0.0097751703,0.0097751703
0.0000000000,0.0586510229,0.0097751703,0.0097751703
0.0000000000,0.0586510229,0.0195503416,0.0000000000
0.0000000000,0.0488758516,0.0195503416,0.0195503416
0.0000000000,0.0488758516,0.0293255119,0.0195503416
0.0000000000,0.0488758516,0.0293255119,0.0195503416
0.0000000000,0.0488758516,0.0195503416,0.0097751703
0.0000000000,0.0488758516,0.0195503416,0.0195503416
0.0000000000,0.0488758516,0.0195503416,0.0195503416
0.0000000000,0.0488758516,0.0195503416,0.0293255119
0.0000000000,0.0391006832,0.0195503416,0.0293255119
0.0000000000,0.0391006832,0.0195503416,0.0293255119
0.0000000000,0.0391006832,0.0195503416,0.0293255119
0.0000000000,0.0391006832,0.0097751703,0.0293255119
0.0000000000,0.0293255119,0.0097751703,0.0391006832
0.0000000000,0.0293255119,0.0097751703,0.0391006832
0.0000000000,0.0293255119,0.0097751703,0.0293255119
0.0000000000,0.0293255119,0.0097751703,0.0293255119
0.0000000000,0.0195503416,0.0097751703,0.0195503416
0.0000000000,0.0195503416,0.0097751703,0.0293255119
0.0000000000,0.0195503416,0.0097751703,0.0293255119
0.0000000000,0.0097751703,0.0097751703,0.0195503416
0.0000000000,0.0195503416,0.0097751703,0.0293255119
0.0000000000,0.0195503416,0.0097751703,0.0195503416
0.0000000000,0.0195503416,0.0097751703,0.0293255119
0.0000000000,0.0195503416,0.0097751703,0.0293255119
0.0000000000,0.0195503416,0.0000000000,0.0195503416
0.0000000000,0.0293255119,0.0097751703,0.0293255119
0.0000000000,0.0195503416,0.0097751703,0.0391006832
0.0000000000,0.0195503416,0.0097751703,0.0293255119
0.0000000000,0.0195503416,0.0000000000,0.0293255119
0.0000000000,0.0195503416,0.0097751703,0.0195503416
0.0000000000,0.0195503416,0.0097751703,0.0391006832
0.0000000000,0.0293255119,0.0097751703,0.0293255119
0.0000000000,0.0195503416,0.0000000000,0.0195503416
0.0000000000,0.0293255119,0.0097751703,0.0195503416
0.0000000000,0.0391006832,0.0097751703,0.0195503416
0.0000000000,0.0488758516,0.0097751703,0.0293255119
0.0000000000,0.0488758516,0.0097751703,0.0293255119
0.0000000000,0.0782013654,0.0097751703,0.0195503416
0.0000000000,0.0977517032,0.0097751703,0.0293255119
0.0000000000,0.1270772218,0.0097751703,0.0293255119
0.0000000000,0.1564027309,0.0097751703,0.0293255119
0.0000000000,0.1857282543,0.0097751703,0.0391006832
0.0000000000,0.2541544437,0.0097751703,0.0684261989
0.0000000000,0.3714565038,0.0097751703,0.0782013654
0.0000000000,0.3519061565,0.0097751703,0.0879765415
0.0000000000,0.3225806236,0.0097751703,0.0879765415
0.0000000000,0.2932551193,0.0097751703,0.0782013654
0.0000000000,0.2932551193,0.0097751703,0.0977517032
0.0000000000,0.2932551193,0.0097751703,0.1368523955
0.0000000000,0.2834799575,0.0097751703,0.1759530782
0.0000000000,0.3030303001,0.0195503416,0.1661779165
0.0000000000,0.2834799575,0.0195503416,0.1857282543
0.0000000000,0.2639296054,0.0097751703,0.1759530782
0.0000000000,0.2541544437,0.0097751703,0.1661779165
0.0000000000,0.2346040964,0.0097751703,0.1661779165
0.0000000000,0.2248289346,0.0097751703,0.1759530782
0.0000000000,0.2150537729,0.0097751703,0.1466275596
0.0000000000,0.1955034160,0.0097751703,0.1270772218
0.0000000000,0.2052785873,0.0097751703,0.1075268864
0.0000000000,0.1857282543,0.0097751703,0.0977517032
0.0000000000,0.1857282543,0.0097751703,0.0782013654
0.0000000000,0.1564027309,0.0097751703,0.0879765415
0.0000000000,0.1564027309,0.0097751703,0.0684261989
0.0000000000,0.1368523955,0.0097751703,0.0684261989
0.0000000000,0.1466275596,0.0097751703,0.0586510229
0.0000000000,0.1368523955,0.0195503416,0.0488758516
0.0000000000,0.1270772218,0.0097751703,0.0391006832
0.0000000000,0.1368523955,0.0195503416,0.0391006832
0.0000000000,0.1173020482,0.0097751703,0.0488758516
0.0000000000,0.1173020482,0.0097751703,0.0586510229
0.0000000000,0.1075268864,0.0195503416,0.0391006832
0.0000000000,0.0977517032,0.0097751703,0.0293255119
0.0000000000,0.0879765415,0.0097751703,0.0293255119
0.0000000000,0.1075268864,0.0097751703,0.0293255119
0.0000000000,0.1075268864,0.0097751703,0.0195503416
0.0000000000,0.0879765415,0.0097751703,0.0293255119
0.0000000000,0.0879765415,0.0097751703,0.0293255119
0.0000000000,0.0879765415,0.0097751703,0.0195503416
0.0000000000,0.0684261989,0.0097751703,0.0195503416
0.0000000000,0.0684261989,0.0097751703,0.0195503416
0.0000000000,0.0684261989,0.0097751703,0.0097751703
0.0000000000,0.0684261989,0.0097751703,0.0097751703
0.0000000000,0.0586510229,0.0097751703,0.0097751703
0.0000000000,0.0586510229,0.0097751703,0.0097751703
0.0000000000,0.0586510229,0.0097751703,0.0097751703
0.0000000000,0.0684261989,0.0097751703,0.0097751703
0.0000000000,0.0684261989,0.0000000000,0.0097751703
0.0000000000,0.0586510229,0.0097751703,0.0097751703
0.0000000000,0.0684261989,0.0097751703,0.0000000000
0.0000000000,0.0488758516,0.0000000000,0.0000000000
0.0000000000,0.0586510229,0.0000000000,0.0097751703
0.0000000000,0.0488758516,0.0000000000,0.0000000000
0.0000000000,0.0391006832,0.0000000000,0.0000000000
0.0000000000,0.0488758516,0.0000000000,0.0000000000
0.0000000000,0.0586510229,0.0000000000,0.0000000000
0.0000000000,0.0586510229,0.0000000000,0.0000000000
0.0000000000,0.0391006832,0.0000000000,0.0000000000
0.0000000000,0.0488758516,0.0000000000,0.0000000000
0.0000000000,0.0488758516,0.0000000000,0.0000000000
0.0000000000,0.0488758516,0.0000000000,0.0000000000
0.0000000000,0.0391006832,0.0000000000,0.0000000000
0.0000000000,0.0488758516,0.0000000000,0.0000000000
0.0000000000,0.0488758516,0.0000000000,0.0000000000
0.0000000000,0.0488758516,0.0000000000,0.0000000000
0.0000000000,0.0391006832,0.0000000000,0.0000000000
0.0000000000,0.0391006832,0.0000000000,0.0000000000
0.0000000000,0.0293255119,0.0000000000,0.0000000000
0.0000000000,0.0293255119,0.0000000000,0.0000000000
0.0000000000,0.0195503416,0.0000000000,0.0000000000
0.0000000000,0.0195503416,0.0000000000,0.0000000000
0.0000000000,0.0195503416,0.0000000000,0.0000000000
0.0000000000,0.0195503416,0.0000000000,0.0000000000
0.0000000000,0.0293255119,0.0000000000,0.0000000000
0.0000000000,0.0293255119,0.0000000000,0.0000000000
0.0000000000,0.0195503416,0.0000000000,0.0000000000
0.0000000000,0.0195503416,0.0000000000,0.0000000000
0.0000000000,0.0195503416,0.0000000000,0.0000000000
0.0000000000,0.0195503416,0.0000000000,0.0000000000
0.0000000000,0.0195503416,0.0000000000,0.0000000000
0.0000000000,0.0293255119,0.0000000000,0.0000000000
0.0000000000,0.0293255119,0.0000000000,0.0000000000
0.0000000000,0.0391006832,0.0000000000,0.0000000000
0.0000000000,0.0586510229,0.0000000000,0.0000000000
0.0000000000,0.1270772218,0.0000000000,0.0000000000
0.0000000000,0.1564027309,0.0000000000,0.0097751703
0.0000000000,0.1661779165,0.0000000000,0.0000000000
0.0000000000,0.1759530782,0.0000000000,0.0097751703
0.0000000000,0.1955034160,0.0000000000,0.0097751703
0.0000000000,0.2639296054,0.0000000000,0.0097751703
0.0000000000,0.3128054618,0.0000000000,0.0097751703
0.0000000000,0.3128054618,0.0000000000,0.0097751703
0.0000000000,0.2932551193,0.0000000000,0.0097751703
0.0000000000,0.2737047910,0.0000000000,0.0195503416
0.0000000000,0.2639296054,0.0000000000,0.0195503416
0.0000000000,0.2737047910,0.0000000000,0.0195503416
0.0000000000,0.2541544437,0.0000000000,0.0195503416
0.0000000000,0.2346040964,0.0000000000,0.0293255119
0.0000000000,0.2541544437,0.0000000000,0.0293255119
0.0000000000,0.2248289346,0.0000000000,0.0391006832
0.0000000000,0.2248289346,0.0000000000,0.0488758516
0.0000000000,0.2052785873,0.0000000000,0.0391006832
0.0000000000,0.1857282543,0.0000000000,0.0391006832
0.0000000000,0.1661779165,0.0000000000,0.0488758516
0.0000000000,0.1661779165,0.0000000000,0.0977517032
0.0000000000,0.1466275596,0.0000000000,0.0977517032
0.0000000000,0.1368523955,0.0000000000,0.1075268864
0.0000000000,0.1466275596,0.0000000000,0.0977517032
0.0000000000,0.1368523955,0.0000000000,0.0879765415
0.0000000000,0.1075268864,0.0000000000,0.0782013654
0.0000000000,0.1075268864,0.0000000000,0.0879765415
0.0000000000,0.0977517032,0.0000000000,0.0879765415
0.0000000000,0.0977517032,0.0000000000,0.0977517032
0.0000000000,0.0782013654,0.0000000000,0.0782013654
0.0000000000,0.0782013654,0.0000000000,0.0879765415
0.0000000000,0.0782013654,0.0000000000,0.0782013654
0.0000000000,0.0684261989,0.0000000000,0.0684261989
0.0000000000,0.0684261989,0.0000000000,0.0586510229
0.0000000000,0.0586510229,0.0000000000,0.0586510229
0.0000000000,0.0586510229,0.0000000000,0.0586510229
0.0000000000,0.0488758516,0.0000000000,0.0586510229
0.0000000000,0.0586510229,0.0000000000,0.0586510229
0.0000000000,0.0586510229,0.0000000000,0.0586510229
0.0000000000,0.0488758516,0.0000000000,0.0586510229
0.0000000000,0.0488758516,0.0000000000,0.0684261989
0.0000000000,0.0684261989,0.0000000000,0.0586510229
0.0000000000,0.0586510229,0.0000000000,0.0488758516
0.0000000000,0.0488758516,0.0000000000,0.0488758516
0.0000000000,0.0488758516,0.0000000000,0.0488758516
0.0000000000,0.0391006832,0.0000000000,0.0488758516
0.0000000000,0.0488758516,0.0000000000,0.0488758516
0.0000000000,0.0391006832,0.0000000000,0.0391006832
0.0000000000,0.0391006832,0.0000000000,0.0391006832
0.0000000000,0.0391006832,0.0000000000,0.0488758516
0.0000000000,0.0293255119,0.0000000000,0.0391006832
0.0000000000,0.0293255119,0.0000000000,0.0293255119
0.0000000000,0.0293255119,0.0000000000,0.0293255119
0.0000000000,0.0293255119,0.0000000000,0.0293255119
0.0000000000,0.0391006832,0.0000000000,0.0195503416
0.0000000000,0.0391006832,0.0000000000,0.0195503416
0.0000000000,0.0391006832,0.0000000000,0.0195503416
0.0000000000,0.0293255119,0.0000000000,0.0195503416
0.0000000000,0.0293255119,0.0000000000,0.0195503416
0.0000000000,0.0195503416,0.0000000000,0.0195503416
0.0000000000,0.0195503416,0.0000000000,0.0195503416
0.0000000000,0.0195503416,0.0000000000,0.0195503416
0.0000000000,0.0195503416,0.0000000000,0.0097751703
0.0000000000,0.0195503416,0.0000000000,0.0097751703
0.0000000000,0.0195503416,0.0000000000,0.0097751703
0.0000000000,0.0195503416,0.0000000000,0.0097751703
0.0000000000,0.0097751703,0.0000000000,0.0097751703
0.0000000000,0.0195503416,0.0000000000,0.0000000000
0.0000000000,0.0195503416,0.0000000000,0.0000000000
0.0000000000,0.0195503416,0.0000000000,0.0097751703
0.0000000000,0.0195503416,0.0000000000,0.0000000000
0.0000000000,0.0195503416,0.0000000000,0.0000000000
0.0000000000,0.0293255119,0.0000000000,0.0000000000
0.0000000000,0.0195503416,0.0000000000,0.0000000000
0.0000000000,0.0195503416,0.0000000000,0.0000000000
0.0000000000,0.0195503416,0.0000000000,0.0000000000
0.0000000000,0.0195503416,0.0000000000,0.0000000000
0.0000000000,0.0293255119,0.0000000000,0.0000000000
0.0000000000,0.0488758516,0.0000000000,0.0000000000
0.0000000000,0.0977517032,0.0000000000,0.0000000000
0.0000000000,0.1270772218,0.0000000000,0.0000000000
0.0000000000,0.1564027309,0.0000000000,0.0000000000
0.0000000000,0.2150537729,0.0000000000,0.0000000000
0.0000000000,0.2248289346,0.0000000000,0.0000000000
0.0000000000,0.2150537729,0.0000000000,0.0000000000
0.0000000000,0.2052785873,0.0000000000,0.0000000000
0.0000000000,0.1955034160,0.0000000000,0.0000000000
0.0000000000,0.1955034160,0.0000000000,0.0000000000
0.0000000000,0.1857282543,0.0000000000,0.0000000000
0.0000000000,0.1955034160,0.0000000000,0.0000000000
0.0000000000,0.2150537729,0.0000000000,0.0000000000
0.0000000000,0.1955034160,0.0000000000,0.0000000000
0.0000000000,0.2052785873,0.0000000000,0.0000000000
0.0000000000,0.2052785873,0.0000000000,0.0000000000
0.0000000000,0.2052785873,0.0000000000,0.0000000000
0.0000000000,0.1857282543,0.0000000000,0.0000000000
0.0000000000,0.1661779165,0.0000000000,0.0000000000
0.0000000000,0.1466275596,0.0000000000,0.0000000000
0.0000000000,0.1466275596,0.0000000000,0.0000000000
0.0000000000,0.1270772218,0.0000000000,0.0000000000
0.0000000000,0.1270772218,0.0000000000,0.0000000000
0.0000000000,0.1270772218,0.0000000000,0.0000000000
0.0000000000,0.1173020482,0.0000000000,0.0000000000
0.0000000000,0.1075268864,0.0000000000,0.0097751703
0.0000000000,0.1075268864,0.0000000000,0.0097751703
0.0000000000,0.1075268864,0.0000000000,0.0097751703
0.0000000000,0.0977517032,0.0000000000,0.0195503416
0.0000000000,0.0879765415,0.0000000000,0.0195503416
0.0000000000,0.0879765415,0.0000000000,0.0195503416
0.0000000000,0.0879765415,0.0000000000,0.0195503416
0.0000000000,0.0782013654,0.0000000000,0.0293255119
0.0000000000,0.0782013654,0.0000000000,0.0391006832
0.0000000000,0.0782013654,0.0000000000,0.0391006832
0.0000000000,0.0684261989,0.0000000000,0.0391006832
0.0000000000,0.0586510229,0.0000000000,0.0293255119
0.0000000000,0.0684261989,0.0000000000,0.0293255119
0.0000000000,0.0684261989,0.0000000000,0.0293255119
0.0000000000,0.0586510229,0.0000000000,0.0391006832
0.0000000000,0.0684261989,0.0000000000,0.0391006832
0.0000000000,0.0684261989,0.0000000000,0.0684261989
0.0000000000,0.0586510229,0.0000000000,0.0977517032
0.0000000000,0.0684261989,0.0000000000,0.1075268864
0.0000000000,0.0586510229,0.0000000000,0.1075268864
0.0000000000,0.0586510229,0.0000000000,0.0977517032
0.0000000000,0.0488758516,0.0000000000,0.1466275596
0.0000000000,0.0391006832,0.0000000000,0.1466275596
0.0000000000,0.0586510229,0.0000000000,0.1759530782
0.0000000000,0.0488758516,0.0000000000,0.1759530782
0.0000000000,0.0586510229,0.0000000000,0.1564027309
0.0000000000,0.0782013654,0.0000000000,0.1661779165
0.0000000000,0.0782013654,0.0000000000,0.1368523955
0.0000000000,0.0586510229,0.0000000000,0.1466275596
0.0000000000,0.0684261989,0.0000000000,0.1466275596
0.0000000000,0.0586510229,0.0000000000,0.1368523955
0.0000000000,0.0488758516,0.0000000000,0.1173020482
0.0000000000,0.0488758516,0.0000000000,0.1270772218
0.0000000000,0.0488758516,0.0000000000,0.0977517032
0.0000000000,0.0488758516,0.0000000000,0.0879765415
0.0000000000,0.0488758516,0.0000000000,0.0782013654
0.0000000000,0.0488758516,0.0000000000,0.0782013654
0.0000000000,0.0488758516,0.0000000000,0.0684261989
0.0000000000,0.0586510229,0.0000000000,0.0782013654
0.0000000000,0.0586510229,0.0000000000,0.0684261989
0.0000000000,0.0488758516,0.0000000000,0.0684261989
0.0000000000,0.0391006832,0.0000000000,0.0586510229
0.0000000000,0.0488758516,0.0000000000,0.0586510229
0.0000000000,0.0391006832,0.0000000000,0.0586510229
0.0000000000,0.0391006832,0.0000000000,0.0586510229
0.0000000000,0.0293255119,0.0000000000,0.0488758516
0.0000000000,0.0293255119,0.0000000000,0.0488758516
0.0000000000,0.0391006832,0.0000000000,0.0488758516
0.0000000000,0.0391006832,0.0000000000,0.0391006832
0.0000000000,0.0293255119,0.0000000000,0.0488758516
0.0000000000,0.0391006832,0.0000000000,0.0391006832
0.0000000000,0.0293255119,0.0000000000,0.0391006832
0.0000000000,0.0293255119,0.0000000000,0.0488758516
0.0000000000,0.0195503416,0.0000000000,0.0488758516
0.0000000000,0.0195503416,0.0000000000,0.0391006832
0.0000000000,0.0195503416,0.0000000000,0.0293255119
0.0000000000,0.0195503416,0.0000000000,0.0293255119
0.0000000000,0.0195503416,0.0000000000,0.0488758516
0.0000000000,0.0293255119,0.0000000000,0.0391006832
0.0000000000,0.0195503416,0.0000000000,0.0293255119
0.0000000000,0.0195503416,0.0000000000,0.0293255119
0.0000000000,0.0195503416,0.0000000000,0.0293255119
0.0000000000,0.0097751703,0.0000000000,0.0195503416
0.0000000000,0.0195503416,0.0000000000,0.0195503416
0.0000000000,0.0195503416,0.0000000000,0.0097751703
0.0000000000,0.0195503416,0.0000000000,0.0097751703
0.0000000000,0.0391006832,0.0000000000,0.0195503416
0.0000000000,0.0684261989,0.0000000000,0.0195503416
0.0000000000,0.0879765415,0.0000000000,0.0293255119
0.0000000000,0.0879765415,0.0000000000,0.0195503416
0.0000000000,0.1075268864,0.0000000000,0.0195503416
0.0000000000,0.1564027309,0.0000000000,0.0195503416
0.0000000000,0.1857282543,0.0000000000,0.0097751703
0.0000000000,0.2346040964,0.0000000000,0.0097751703
0.0000000000,0.2639296054,0.0000000000,0.0097751703
0.0000000000,0.3128054618,0.0000000000,0.0097751703
0.0000000000,0.3030303001,0.0000000000,0.0097751703
0.0000000000,0.2932551193,0.0000000000,0.0097751703
0.0000000000,0.2639296054,0.0000000000,0.0097751703
0.0000000000,0.2346040964,0.0000000000,0.0000000000
0.0000000000,0.2346040964,0.0000000000,0.0000000000
0.0000000000,0.2150537729,0.0000000000,0.0097751703
0.0000000000,0.1857282543,0.0000000000,0.0000000000
0.0000000000,0.1759530782,0.0000000000,0.0000000000
0.0000000000,0.1564027309,0.0000000000,0.0000000000
0.0000000000,0.1466275596,0.0000000000,0.0097751703
0.0000000000,0.1564027309,0.0000000000,0.0000000000
0.0000000000,0.1466275596,0.0000000000,0.0000000000
0.0000000000,0.1466275596,0.0000000000,0.0000000000
0.0000000000,0.1368523955,0.0000000000,0.0000000000
0.0000000000,0.1368523955,0.0000000000,0.0000000000
0.0000000000,0.1270772218,0.0000000000,0.0000000000
0.0000000000,0.1075268864,0.0000000000,0.0000000000
0.0000000000,0.1075268864,0.0000000000,0.0000000000
0.0000000000,0.1075268864,0.0000000000,0.0000000000
0.0000000000,0.1075268864,0.0000000000,0.0000000000
0.0000000000,0.1075268864,0.0000000000,0.0000000000
0.0000000000,0.0977517032,0.0000000000,0.0000000000
0.0000000000,0.0879765415,0.0000000000,0.0000000000
0.0000000000,0.0879765415,0.0000000000,0.0000000000
0.0000000000,0.0879765415,0.0000000000,0.0000000000
0.0000000000,0.0782013654,0.0000000000,0.0000000000
0.0000000000,0.0879765415,0.0000000000,0.0000000000
0.0000000000,0.0684261989,0.0000000000,0.0000000000
0.0000000000,0.0586510229,0.0000000000,0.0000000000
0.0000000000,0.0684261989,0.0000000000,0.0000000000
0.0000000000,0.0684261989,0.0000000000,0.0000000000
0.0000000000,0.0586510229,0.0000000000,0.0000000000
0.0000000000,0.0684261989,0.0000000000,0.0000000000
0.0000000000,0.0586510229,0.0000000000,0.0000000000
0.0000000000,0.0488758516,0.0000000000,0.0000000000
0.0000000000,0.0488758516,0.0000000000,0.0000000000
0.0000000000,0.0488758516,0.0000000000,0.0097751703
0.0000000000,0.0782013654,0.0000000000,0.0097751703
0.0000000000,0.0684261989,0.0000000000,0.0097751703
0.0000000000,0.0684261989,0.0000000000,0.0097751703
0.0000000000,0.0782013654,0.0000000000,0.0195503416
0.0000000000,0.0684261989,0.0000000000,0.0195503416
0.0000000000,0.0684261989,0.0000000000,0.0195503416
0.0000000000,0.0586510229,0.0000000000,0.0293255119
0.0000000000,0.0586510229,0.0000000000,0.0293255119
0.0000000000,0.0586510229,0.0000000000,0.0195503416
0.0000000000,0.0586510229,0.0000000000,0.0195503416
0.0000000000,0.0586510229,0.0000000000,0.0097751703
0.0000000000,0.0684261989,0.0000000000,0.0097751703
0.0000000000,0.0586510229,0.0000000000,0.0195503416
0.0000000000,0.0684261989,0.0000000000,0.0195503416
0.0000000000,0.0586510229,0.0000000000,0.0195503416
0.0000000000,0.0586510229,0.0000000000,0.0293255119
0.0000000000,0.0586510229,0.0000000000,0.0391006832
0.0000000000,0.0488758516,0.0000000000,0.0488758516
0.0000000000,0.0586510229,0.0000000000,0.0586510229
0.0000000000,0.0586510229,0.0000000000,0.0488758516
0.0000000000,0.0488758516,0.0000000000,0.0488758516
0.0000000000,0.0586510229,0.0000000000,0.0586510229
0.0000000000,0.0488758516,0.0000000000,0.0684261989
0.0000000000,0.0488758516,0.0000000000,0.0782013654
0.0000000000,0.0586510229,0.0000000000,0.0782013654
0.0000000000,0.0488758516,0.0000000000,0.0782013654
0.0000000000,0.0586510229,0.0000000000,0.0684261989
0.0000000000,0.0488758516,0.0000000000,0.0782013654
0.0000000000,0.0391006832,0.0000000000,0.0782013654
0.0000000000,0.0391006832,0.0000000000,0.0782013654
0.0000000000,0.0488758516,0.0000000000,0.0782013654
0.0000000000,0.0488758516,0.0000000000,0.0782013654
0.0000000000,0.0391006832,0.0000000000,0.0586510229
0.0000000000,0.0391006832,0.0000000000,0.0586510229
0.0000000000,0.0488758516,0.0000000000,0.0586510229
0.0000000000,0.0391006832,0.0000000000,0.0488758516
0.0000000000,0.0293255119,0.0000000000,0.0488758516
0.0000000000,0.0293255119,0.0000000000,0.0586510229
0.0000000000,0.0391006832,0.0000000000,0.0586510229
0.0000000000,0.0293255119,0.0000000000,0.0488758516
0.0000000000,0.0293255119,0.0000000000,0.0391006832
0.0000000000,0.0391006832,0.0000000000,0.0391006832
0.0000000000,0.0391006832,0.0000000000,0.0586510229
0.0000000000,0.0391006832,0.0000000000,0.0488758516
0.0000000000,0.0293255119,0.0000000000,0.0391006832
0.0000000000,0.0488758516,0.0000000000,0.0293255119
0.0000000000,0.0391006832,0.0000000000,0.0293255119
0.0000000000,0.0391006832,0.0000000000,0.0391006832
0.0000000000,0.0391006832,0.0000000000,0.0391006832
0.0000000000,0.0586510229,0.0000000000,0.0391006832
0.0000000000,0.0684261989,0.0000000000,0.0293255119
0.0000000000,0.0879765415,0.0000000000,0.0195503416
0.0000000000,0.1173020482,0.0000000000,0.0195503416
0.0000000000,0.1368523955,0.0000000000,0.0097751703
0.0000000000,0.1368523955,0.0000000000,0.0097751703
0.0000000000,0.1466275596,0.0000000000,0.0097751703
0.0000000000,0.1564027309,0.0000000000,0.0097751703
0.0000000000,0.1466275596,0.0000000000,0.0097751703
0.0000000000,0.1564027309,0.0000000000,0.0097751703
0.0000000000,0.1564027309,0.0000000000,0.0097751703
0.0000000000,0.1857282543,0.0000000000,0.0195503416
0.0000000000,0.1955034160,0.0000000000,0.0097751703
0.0000000000,0.1857282543,0.0000000000,0.0097751703
0.0000000000,0.1955034160,0.0000000000,0.0097751703
0.0000000000,0.1759530782,0.0000000000,0.0097751703
0.0000000000,0.1955034160,0.0000000000,0.0000000000
0.0000000000,0.1857282543,0.0000000000,0.0000000000
0.0000000000,0.1759530782,0.0000000000,0.0000000000
0.0000000000,0.1661779165,0.0000000000,0.0000000000
0.0000000000,0.1466275596,0.0000000000,0.0000000000
0.0000000000,0.1466275596,0.0000000000,0.0000000000
0.0000000000,0.1466275596,0.0000000000,0.0000000000
0.0000000000,0.1270772218,0.0000000000,0.0000000000
0.0000000000,0.1270772218,0.0000000000,0.0000000000
0.0000000000,0.1173020482,0.0000000000,0.0000000000
0.0000000000,0.1075268864,0.0000000000,0.0000000000
0.0000000000,0.1075268864,0.0000000000,0.0000000000
0.0000000000,0.0977517032,0.0000000000,0.0000000000
0.0000000000,0.0879765415,0.0000000000,0.0000000000
0.0000000000,0.0879765415,0.0000000000,0.0000000000
0.0000000000,0.0879765415,0.0000000000,0.0097751703
0.0000000000,0.0782013654,0.0000000000,0.0097751703
0.0000000000,0.0782013654,0.0000000000,0.0097751703
0.0000000000,0.0684261989,0.0000000000,0.0097751703
0.0000000000,0.0684261989,0.0000000000,0.0097751703
0.0000000000,0.0684261989,0.0000000000,0.0097751703
0.0000000000,0.0684261989,0.0000000000,0.0195503416
0.0000000000,0.0586510229,0.0000000000,0.0195503416
0.0000000000,0.0488758516,0.0000000000,0.0195503416
0.0000000000,0.0488758516,0.0000000000,0.0195503416
0.0000000000,0.0391006832,0.0000000000,0.0293255119
0.0000000000,0.0488758516,0.0000000000,0.0293255119
0.0000000000,0.0488758516,0.0000000000,0.0293255119
0.0000000000,0.0586510229,0.0000000000,0.0293255119
0.0000000000,0.0586510229,0.0000000000,0.0391006832
0.0000000000,0.0586510229,0.0000000000,0.0391006832
0.0000000000,0.0586510229,0.0000000000,0.0391006832
0.0000000000,0.0586510229,0.0000000000,0.0391006832
0.0000000000,0.0488758516,0.0000000000,0.0391006832
0.0000000000,0.0488758516,0.0000000000,0.0586510229
0.0000000000,0.0586510229,0.0000000000,0.0586510229
0.0000000000,0.0684261989,0.0000000000,0.0879765415
0.0000000000,0.0586510229,0.0000000000,0.0782013654
0.0000000000,0.0488758516,0.0000000000,0.0782013654
0.0000000000,0.0586510229,0.0000000000,0.0684261989
0.0000000000,0.0586510229,0.0000000000,0.0684261989
0.0000000000,0.0586510229,0.0000000000,0.0684261989
0.0000000000,0.0684261989,0.0000000000,0.0782013654
0.0000000000,0.0684261989,0.0000000000,0.0684261989
0.0000000000,0.0586510229,0.0000000000,0.0684261989
0.0000000000,0.0586510229,0.0000000000,0.0879765415
0.0000000000,0.0488758516,0.0000000000,0.0879765415
0.0000000000,0.0488758516,0.0000000000,0.0782013654
0.0000000000,0.0391006832,0.0000000000,0.0684261989
0.0000000000,0.0391006832,0.0000000000,0.0684261989
0.0000000000,0.0391006832,0.0000000000,0.0586510229
0.0000000000,0.0391006832,0.0000000000,0.0488758516
0.0000000000,0.0293255119,0.0000000000,0.0391006832
0.0000000000,0.0293255119,0.0000000000,0.0391006832
0.0000000000,0.0195503416,0.0000000000,0.0391006832
0.0000000000,0.0195503416,0.0000000000,0.0391006832
0.0000000000,0.0195503416,0.0000000000,0.0293255119
0.0000000000,0.0195503416,0.0000000000,0.0293255119
0.0000000000,0.0195503416,0.0000000000,0.0293255119
0.0000000000,0.0195503416,0.0000000000,0.0195503416
0.0000000000,0.0195503416,0.0000000000,0.0293255119
0.0000000000,0.0195503416,0.0000000000,0.0195503416
0.0000000000,0.0195503416,0.0000000000,0.0195503416
0.0000000000,0.0195503416,0.0000000000,0.0195503416
0.0000000000,0.0195503416,0.0000000000,0.0195503416
0.0000000000,0.0195503416,0.0000000000,0.0195503416
0.0000000000,0.0195503416,0.0000000000,0.0195503416
0.0000000000,0.0097751703,0.0000000000,0.0097751703
0.0000000000,0.0195503416,0.0000000000,0.0097751703
0.0000000000,0.0097751703,0.0000000000,0.0097751703
0.0000000000,0.0195503416,0.0000000000,0.0097751703
0.0000000000,0.0195503416,0.0000000000,0.0097751703
0.0000000000,0.0195503416,0.0000000000,0.0097751703
0.0000000000,0.0195503416,0.0000000000,0.0097751703
0.0000000000,0.0195503416,0.0000000000,0.0000000000
0.0000000000,0.0195503416,0.0000000000,0.0000000000
0.0000000000,0.0195503416,0.0000000000,0.0000000000
0.0000000000,0.0195503416,0.0000000000,0.0000000000
0.0000000000,0.0391006832,0.0000000000,0.0000000000
0.0000000000,0.0391006832,0.0000000000,0.0000000000
0.0000000000,0.0586510229,0.0000000000,0.0000000000
0.0000000000,0.1270772218,0.0000000000,0.0000000000
0.0000000000,0.1173020482,0.0000000000,0.0000000000
0.0000000000,0.1270772218,0.0000000000,0.0000000000
0.0000000000,0.1466275596,0.0000000000,0.0000000000
0.0000000000,0.2346040964,0.0000000000,0.0000000000
0.0000000000,0.2932551193,0.0000000000,0.0000000000
0.0000000000,0.2932551193,0.0000000000,0.0000000000
0.0000000000,0.3128054618,0.0000000000,0.0000000000
0.0000000000,0.2932551193,0.0000000000,0.0000000000
0.0000000000,0.2639296054,0.0000000000,0.0000000000
0.0000000000,0.2541544437,0.0000000000,0.0000000000
0.0000000000,0.2346040964,0.0000000000,0.0000000000
0.0000000000,0.2150537729,0.0000000000,0.0000000000
0.0000000000,0.2052785873,0.0000000000,0.0000000000
0.0000000000,0.2052785873,0.0000000000,0.0000000000
0.0000000000,0.1955034160,0.0000000000,0.0000000000
0.0000000000,0.2052785873,0.0000000000,0.0000000000
0.0000000000,0.1857282543,0.0000000000,0.0000000000
0.0000000000,0.1955034160,0.0000000000,0.0000000000
0.0000000000,0.1955034160,0.0000000000,0.0000000000
0.0000000000,0.1759530782,0.0000000000,0.0000000000
0.0000000000,0.1661779165,0.0000000000,0.0000000000
0.0000000000,0.1466275596,0.0000000000,0.0000000000
0.0000000000,0.1466275596,0.0000000000,0.0000000000
0.0000000000,0.1466275596,0.0000000000,0.0000000000
0.0000000000,0.1270772218,0.0000000000,0.0000000000
0.0000000000,0.1173020482,0.0000000000,0.0000000000
0.0000000000,0.0977517032,0.0000000000,0.0000000000
0.0000000000,0.0977517032,0.0000000000,0.0000000000
0.0000000000,0.0977517032,0.0000000000,0.0000000000
0.0000000000,0.0782013654,0.0000000000,0.0000000000
0.0000000000,0.0879765415,0.0000000000,0.0000000000
0.0000000000,0.0782013654,0.0000000000,0.0097751703
0.0000000000,0.0782013654,0.0000000000,0.0097751703
0.0000000000,0.0782013654,0.0000000000,0.0195503416
0.0000000000,0.0782013654,0.0000000000,0.0488758516
0.0000000000,0.0684261989,0.0000000000,0.0488758516
0.0000000000,0.0684261989,0.0000000000,0.0586510229
0.0000000000,0.0684261989,0.0000000000,0.0782013654
0.0000000000,0.0684261989,0.0000000000,0.0782013654
0.0000000000,0.0586510229,0.0000000000,0.0879765415
0.0000000000,0.0684261989,0.0000000000,0.0879765415
0.0000000000,0.0684261989,0.0000000000,0.0879765415
0.0000000000,0.0684261989,0.0000000000,0.0977517032
0.0000000000,0.0782013654,0.0000000000,0.1075268864
0.0000000000,0.0977517032,0.0000000000,0.1270772218
0.0000000000,0.0879765415,0.0000000000,0.1368523955
0.0000000000,0.0879765415,0.0000000000,0.1564027309
0.0000000000,0.0879765415,0.0000000000,0.1661779165
0.0000000000,0.0977517032,0.0000000000,0.1564027309
0.0000000000,0.0977517032,0.0000000000,0.1466275596
0.0000000000,0.1075268864,0.0000000000,0.1368523955
0.0000000000,0.1075268864,0.0000000000,0.1270772218
0.0000000000,0.0977517032,0.0000000000,0.0977517032
0.0000000000,0.0879765415,0.0000000000,0.1075268864
0.0000000000,0.0879765415,0.0000000000,0.0977517032
0.0000000000,0.0879765415,0.0000000000,0.0977517032
0.0000000000,0.0879765415,0.0000000000,0.0879765415
0.0000000000,0.0879765415,0.0000000000,0.0684261989
0.0000000000,0.0782013654,0.0000000000,0.0684261989
0.0000000000,0.0782013654,0.0000000000,0.0782013654
0.0000000000,0.0684261989,0.0000000000,0.0684261989
0.0000000000,0.0586510229,0.0000000000,0.0586510229
0.0000000000,0.0488758516,0.0000000000,0.0586510229
0.0000000000,0.0488758516,0.0000000000,0.0586510229
0.0000000000,0.0391006832,0.0000000000,0.0488758516
0.0000000000,0.0391006832,0.0000000000,0.0391006832
0.0000000000,0.0391006832,0.0000000000,0.0488758516
0.0000000000,0.0488758516,0.0000000000,0.0391006832
0.0000000000,0.0391006832,0.0000000000,0.0293255119
0.0000000000,0.0391006832,0.0000000000,0.0195503416
0.0000000000,0.0293255119,0.0000000000,0.0195503416
0.0000000000,0.0293255119,0.0000000000,0.0097751703
0.0000000000,0.0293255119,0.0000000000,0.0097751703
0.0000000000,0.0293255119,0.0000000000,0.0097751703
0.0000000000,0.0293255119,0.0000000000,0.0097751703
0.0000000000,0.0293255119,0.0097751703,0.0097751703
0.0000000000,0.0293255119,0.0097751703,0.0097751703
0.0000000000,0.0293255119,0.0097751703,0.0000000000
0.0000000000,0.0293255119,0.0097751703,0.0000000000
0.0000000000,0.0293255119,0.0097751703,0.0000000000
0.0000000000,0.0293255119,0.0097751703,0.0000000000
0.0000000000,0.0195503416,0.0097751703,0.0000000000
0.0000000000,0.0195503416,0.0488758516,0.0000000000
0.0000000000,0.0195503416,0.0684261989,0.0000000000
0.0000000000,0.0195503416,0.0586510229,0.0000000000
0.0000000000,0.0195503416,0.0391006832,0.0000000000
0.0000000000,0.0097751703,0.0293255119,0.0000000000
0.0000000000,0.0097751703,0.0195503416,0.0000000000
0.0000000000,0.0097751703,0.0195503416,0.0000000000
0.0000000000,0.0097751703,0.0097751703,0.0000000000
0.0000000000,0.0097751703,0.0097751703,0.0000000000
0.0000000000,0.0097751703,0.0097751703,0.0000000000
0.0000000000,0.0097751703,0.0097751703,0.0000000000
0.0000000000,0.0097751703,0.0097751703,0.0000000000
0.0000000000,0.0097751703,0.0097751703,0.0000000000
0.0000000000,0.0097751703,0.0000000000,0.0000000000
0.0000000000,0.0097751703,0.0097751703,0.0000000000
0.0000000000,0.0097751703,0.0097751703,0.0000000000
0.0000000000,0.0293255119,0.0097751703,0.0000000000
0.0000000000,0.0391006832,0.0000000000,0.0000000000
0.0195503416,0.0195503416,0.0977517032,0.0097751703
0.8993157386,1.2023460865,0.1466275596,0.4398827075
0.7038123130,0.9384163856,0.1173020482,0.3421309947
0.5571847438,0.7820136547,0.0879765415,0.2737047910
0.4301075458,0.6353860855,0.0684261989,0.2150537729
0.3421309947,0.5278592109,0.0586510229,0.1661779165
0.2737047910,0.4496578693,0.0391006832,0.1368523955
0.2052785873,0.4007820129,0.0293255119,0.1075268864
0.1661779165,0.3519061565,0.0293255119,0.0879765415
0.1270772218,0.3225806236,0.0097751703,0.0782013654
0.0977517032,0.2932551193,0.0097751703,0.0684261989
0.0782013654,0.2834799575,0.0097751703,0.0488758516
0.0684261989,0.2737047910,0.0097751703,0.0488758516
0.0488758516,0.2541544437,0.0097751703,0.0391006832
0.0391006832,0.2346040964,0.0000000000,0.0391006832
0.0293255119,0.2443792819,0.0000000000,0.0293255119
0.0195503416,0.2248289346,0.0000000000,0.0293255119
0.0195503416,0.2248289346,0.0000000000,0.0293255119
0.0097751703,0.2443792819,0.0000000000,0.0391006832
0.0097751703,0.3225806236,0.0000000000,0.0488758516
0.0097751703,0.3225806236,0.0000000000,0.0488758516
0.0097751703,0.3030303001,0.0000000000,0.0488758516
0.0097751703,0.2737047910,0.0000000000,0.0488758516
0.0097751703,0.2443792819,0.0000000000,0.0586510229
0.0000000000,0.2248289346,0.0000000000,0.0684261989
0.0097751703,0.1955034160,0.0000000000,0.0684261989
0.0000000000,0.1955034160,0.0000000000,0.0782013654
0.0000000000,0.1759530782,0.0000000000,0.0684261989
0.0000000000,0.1466275596,0.0000000000,0.0684261989
0.0000000000,0.1661779165,0.0000000000,0.0586510229
0.0000000000,0.1466275596,0.0000000000,0.0586510229
0.0000000000,0.1368523955,0.0000000000,0.0586510229
0.0000000000,0.1368523955,0.0000000000,0.0488758516
0.0000000000,0.1270772218,0.0000000000,0.0488758516
0.0000000000,0.0684261989,0.0000000000,0.0391006832
0.0000000000,0.0977517032,0.0000000000,0.0488758516
0.0000000000,0.0879765415,0.0000000000,0.0586510229
0.0000000000,0.0782013654,0.0000000000,0.0586510229
0.0000000000,0.0684261989,0.0000000000,0.0488758516
0.0000000000,0.0391006832,0.0000000000,0.0684261989
0.0000000000,0.0195503416,0.0000000000,0.0586510229
0.0000000000,0.0684261989,0.0000000000,0.0586510229
0.0000000000,0.0684261989,0.0000000000,0.0488758516
0.0000000000,0.0684261989,0.0000000000,0.0488758516
0.0000000000,0.0684261989,0.0000000000,0.0488758516
0.0000000000,0.0684261989,0.0000000000,0.0488758516
0.0000000000,0.0586510229,0.0000000000,0.0488758516
0.0000000000,0.0782013654,0.0000000000,0.0488758516
0.0000000000,0.0782013654,0.0000000000,0.0488758516
0.0000000000,0.0782013654,0.0000000000,0.0391006832
0.0000000000,0.0782013654,0.0000000000,0.0293255119
0.0000000000,0.0879765415,0.0000000000,0.0293255119
0.0000000000,0.0684261989,0.0000000000,0.0293255119
0.0000000000,0.0782013654,0.0000000000,0.0195503416
0.0000000000,0.0782013654,0.0000000000,0.0195503416
0.0000000000,0.0782013654,0.0000000000,0.0195503416
0.0000000000,0.0879765415,0.0000000000,0.0195503416
0.0000000000,0.0782013654,0.0000000000,0.0195503416
0.0000000000,0.0684261989,0.0000000000,0.0195503416
0.0000000000,0.0586510229,0.0000000000,0.0195503416
0.0000000000,0.0586510229,0.0000000000,0.0195503416
0.0000000000,0.0586510229,0.0000000000,0.0195503416
0.0000000000,0.0586510229,0.0000000000,0.0097751703
0.0000000000,0.0488758516,0.0000000000,0.0097751703
0.0000000000,0.0391006832,0.0000000000,0.0097751703
0.0000000000,0.0391006832,0.0000000000,0.0097751703
0.0000000000,0.0391006832,0.0000000000,0.0000000000
0.0000000000,0.0391006832,0.0000000000,0.0000000000
0.0000000000,0.0293255119,0.0000000000,0.0000000000
0.0000000000,0.0293255119,0.0000000000,0.0000000000
0.0000000000,0.0293255119,0.0000000000,0.0000000000
0.0000000000,0.0293255119,0.0000000000,0.0000000000
0.0000000000,0.0195503416,0.0000000000,0.0097751703
0.0000000000,0.0195503416,0.0000000000,0.0000000000
0.0000000000,0.0195503416,0.0000000000,0.0000000000
0.0000000000,0.0293255119,0.0000000000,0.0097751703
0.0000000000,0.0293255119,0.0000000000,0.0097751703
0.0000000000,0.0293255119,0.0000000000,0.0097751703
0.0000000000,0.0293255119,0.0000000000,0.0097751703
0.0000000000,0.0293255119,0.0000000000,0.0000000000
0.0000000000,0.0391006832,0.0000000000,0.0000000000
0.0000000000,0.0391006832,0.0000000000,0.0000000000
0.0000000000,0.0391006832,0.0000000000,0.0097751703
0.0000000000,0.0391006832,0.0000000000,0.0000000000
0.0000000000,0.0391006832,0.0000000000,0.0000000000
0.0000000000,0.0293255119,0.0000000000,0.0000000000
0.0000000000,0.0391006832,0.0000000000,0.0000000000
0.0000000000,0.0391006832,0.0000000000,0.0000000000
0.0000000000,0.0293255119,0.0000000000,0.0000000000
0.0000000000,0.0293255119,0.0000000000,0.0097751703
0.0000000000,0.0293255119,0.0000000000,0.0000000000
0.0000000000,0.0293255119,0.0000000000,0.0097751703
0.0000000000,0.0488758516,0.0000000000,0.0097751703
0.0000000000,0.0586510229,0.0000000000,0.0097751703
0.0000000000,0.0684261989,0.0000000000,0.0097751703
0.0000000000,0.0684261989,0.0000000000,0.0195503416
0.0000000000,0.0684261989,0.0000000000,0.0195503416
0.0000000000,0.1075268864,0.0000000000,0.0293255119
0.0000000000,0.1564027309,0.0000000000,0.0293255119
0.0000000000,0.1564027309,0.0000000000,0.0195503416
0.0000000000,0.1466275596,0.0000000000,0.0293255119
0.0000000000,0.1564027309,0.0000000000,0.0195503416
0.0000000000,0.2248289346,0.0000000000,0.0391006832
0.0000000000,0.2248289346,0.0000000000,0.0391006832
0.0000000000,0.2150537729,0.0000000000,0.0391006832
0.0000000000,0.2639296054,0.0000000000,0.0488758516
0.0000000000,0.2541544437,0.0000000000,0.0488758516
0.0000000000,0.2346040964,0.0000000000,0.0684261989
0.0000000000,0.2248289346,0.0000000000,0.0879765415
0.0000000000,0.2346040964,0.0000000000,0.0977517032
0.0000000000,0.2932551193,0.0000000000,0.1075268864
0.0000000000,0.2932551193,0.0000000000,0.1173020482
0.0000000000,0.2737047910,0.0000000000,0.1173020482
0.0000000000,0.2541544437,0.0000000000,0.0977517032
0.0000000000,0.2346040964,0.0000000000,0.0879765415
0.0000000000,0.2150537729,0.0000000000,0.0977517032
0.0000000000,0.1955034160,0.0000000000,0.0977517032
0.0000000000,0.1759530782,0.0000000000,0.1075268864
0.0000000000,0.1661779165,0.0000000000,0.0977517032
0.0000000000,0.1564027309,0.0000000000,0.1075268864
0.0000000000,0.1466275596,0.0000000000,0.1075268864
0.0000000000,0.1466275596,0.0000000000,0.1075268864
0.0000000000,0.1368523955,0.0000000000,0.0977517032
0.0000000000,0.1270772218,0.0000000000,0.0879765415
0.0000000000,0.1270772218,0.0000000000,0.0782013654
0.0000000000,0.1075268864,0.0000000000,0.0782013654
0.0000000000,0.0977517032,0.0000000000,0.0782013654
0.0000000000,0.0879765415,0.0000000000,0.0684261989
0.0000000000,0.0879765415,0.0000000000,0.0586510229
0.0000000000,0.0879765415,0.0000000000,0.0586510229
0.0000000000,0.0879765415,0.0000000000,0.0586510229
0.0000000000,0.0782013654,0.0000000000,0.0684261989
0.0000000000,0.0782013654,0.0000000000,0.0684261989
0.0000000000,0.0782013654,0.0000000000,0.0684261989
0.0000000000,0.0782013654,0.0000000000,0.0684261989
0.0000000000,0.0782013654,0.0000000000,0.0586510229
0.0000000000,0.0684261989,0.0000000000,0.0586510229
0.0000000000,0.0684261989,0.0000000000,0.0586510229
0.0000000000,0.0684261989,0.0000000000,0.0684261989
0.0000000000,0.0586510229,0.0000000000,0.0684261989
0.0000000000,0.0782013654,0.0000000000,0.0586510229
0.0000000000,0.0684261989,0.0000000000,0.0488758516
0.0000000000,0.0586510229,0.0000000000,0.0586510229
0.0000000000,0.0488758516,0.0000000000,0.0586510229
0.0000000000,0.0488758516,0.0000000000,0.0586510229
0.0000000000,0.0488758516,0.0000000000,0.0488758516
0.0000000000,0.0586510229,0.0000000000,0.0391006832
0.0000000000,0.0684261989,0.0000000000,0.0391006832
0.0000000000,0.0684261989,0.0000000000,0.0488758516
0.0000000000,0.0684261989,0.0000000000,0.0391006832
0.0000000000,0.0586510229,0.0000000000,0.0293255119
0.0000000000,0.0586510229,0.0000000000,0.0293255119
0.0000000000,0.0488758516,0.0000000000,0.0293255119
0.0000000000,0.0488758516,0.0000000000,0.0293255119
0.0000000000,0.0488758516,0.0000000000,0.0195503416
0.0000000000,0.0488758516,0.0000000000,0.0391006832
0.0000000000,0.0391006832,0.0000000000,0.0391006832
0.0000000000,0.0488758516,0.0000000000,0.0293255119
0.0000000000,0.0391006832,0.0000000000,0.0195503416
0.0000000000,0.0293255119,0.0000000000,0.0195503416
0.0000000000,0.0293255119,0.0000000000,0.0097751703
0.0000000000,0.0293255119,0.0000000000,0.0097751703
0.0000000000,0.0293255119,0.0000000000,0.0195503416
0.0000000000,0.0293255119,0.0000000000,0.0195503416
0.0000000000,0.0293255119,0.0000000000,0.0195503416
0.0000000000,0.0391006832,0.0000000000,0.0097751703
0.0000000000,0.0391006832,0.0000000000,0.0097751703
0.0000000000,0.0488758516,0.0000000000,0.0097751703
0.0000000000,0.0391006832,0.0000000000,0.0097751703
0.0000000000,0.0391006832,0.0000000000,0.0000000000
0.0000000000,0.0488758516,0.0000000000,0.0000000000
0.0000000000,0.0391006832,0.0000000000,0.0000000000
0.0000000000,0.0293255119,0.0000000000,0.0000000000
0.0000000000,0.0293255119,0.0000000000,0.0000000000
0.0000000000,0.0293255119,0.0000000000,0.0000000000
0.0000000000,0.0293255119,0.0000000000,0.0000000000
0.0000000000,0.0293255119,0.0000000000,0.0000000000
0.0000000000,0.0293255119,0.0000000000,0.0000000000
0.0000000000,0.0293255119,0.0000000000,0.0000000000
0.0000000000,0.0391006832,0.0000000000,0.0000000000
0.0000000000,0.0391006832,0.0000000000,0.0000000000
0.0000000000,0.0391006832,0.0000000000,0.0000000000
0.0000000000,0.0391006832,0.0000000000,0.0000000000
0.0000000000,0.0391006832,0.0000000000,0.0000000000
0.0000000000,0.0488758516,0.0000000000,0.0000000000
0.0000000000,0.0586510229,0.0000000000,0.0000000000
0.0000000000,0.0684261989,0.0000000000,0.0000000000
0.0000000000,0.0782013654,0.0000000000,0.0000000000
0.0000000000,0.0977517032,0.0000000000,0.0097751703
0.0000000000,0.1368523955,0.0000000000,0.0097751703
0.0000000000,0.1368523955,0.0000000000,0.0097751703
0.0000000000,0.1661779165,0.0000000000,0.0097751703
0.0000000000,0.2052785873,0.0000000000,0.0195503416
0.0000000000,0.2248289346,0.0000000000,0.0195503416
0.0000000000,0.2541544437,0.0000000000,0.0293255119
0.0000000000,0.2639296054,0.0000000000,0.0293255119
0.0000000000,0.2541544437,0.0000000000,0.0293255119
0.0000000000,0.2737047910,0.0000000000,0.0293255119
0.0000000000,0.2639296054,0.0000000000,0.0391006832
0.0000000000,0.2346040964,0.0000000000,0.0391006832
0.0000000000,0.2248289346,0.0000000000,0.0586510229
0.0000000000,0.2346040964,0.0000000000,0.0684261989
0.0000000000,0.2248289346,0.0000000000,0.0879765415
0.0000000000,0.2248289346,0.0000000000,0.0782013654
0.0000000000,0.2248289346,0.0000000000,0.0879765415
0.0000000000,0.2052785873,0.0000000000,0.0977517032
0.0000000000,0.1857282543,0.0000000000,0.0879765415
0.0000000000,0.1955034160,0.0000000000,0.0782013654
0.0000000000,0.1955034160,0.0000000000,0.0879765415
0.0000000000,0.1759530782,0.0000000000,0.0879765415
0.0000000000,0.1759530782,0.0000000000,0.0684261989
0.0000000000,0.1466275596,0.0000000000,0.0488758516
0.0000000000,0.1368523955,0.0000000000,0.0488758516
0.0000000000,0.1270772218,0.0000000000,0.0488758516
0.0000000000,0.1075268864,0.0000000000,0.0391006832
0.0000000000,0.0879765415,0.0000000000,0.0586510229
0.0000000000,0.0782013654,0.0000000000,0.0684261989
0.0000000000,0.0782013654,0.0000000000,0.0782013654
0.0000000000,0.0782013654,0.0000000000,0.0782013654
0.0000000000,0.0684261989,0.0000000000,0.0879765415
0.0000000000,0.0782013654,0.0000000000,0.0977517032
0.0000000000,0.0684261989,0.0000000000,0.0879765415
0.0000000000,0.0684261989,0.0000000000,0.0782013654
0.0000000000,0.0879765415,0.0000000000,0.0782013654
0.0000000000,0.0879765415,0.0000000000,0.0684261989
0.0000000000,0.0684261989,0.0000000000,0.0586510229
0.0000000000,0.0782013654,0.0000000000,0.0488758516
0.0000000000,0.0782013654,0.0000000000,0.0488758516
0.0000000000,0.0684261989,0.0000000000,0.0391006832
0.0000000000,0.0684261989,0.0000000000,0.0488758516
0.0000000000,0.0684261989,0.0000000000,0.0684261989
0.0000000000,0.0684261989,0.0000000000,0.0586510229
0.0000000000,0.0684261989,0.0000000000,0.0488758516
0.0000000000,0.0586510229,0.0000000000,0.0586510229
0.0000000000,0.0586510229,0.0000000000,0.0684261989
0.0000000000,0.0684261989,0.0000000000,0.0586510229
0.0000000000,0.0586510229,0.0000000000,0.0586510229
0.0000000000,0.0586510229,0.0000000000,0.0586510229
0.0000000000,0.0488758516,0.0000000000,0.0684261989
0.0000000000,0.0488758516,0.0000000000,0.0586510229
0.0000000000,0.0488758516,0.0000000000,0.0488758516
0.0000000000,0.0488758516,0.0000000000,0.0391006832
0.0000000000,0.0488758516,0.0000000000,0.0293255119
0.0000000000,0.0391006832,0.0000000000,0.0488758516
0.0000000000,0.0391006832,0.0000000000,0.0391006832
0.0000000000,0.0488758516,0.0000000000,0.0293255119
0.0000000000,0.0488758516,0.0000000000,0.0293255119
0.0000000000,0.0488758516,0.0000000000,0.0293255119
0.0000000000,0.0488758516,0.0000000000,0.0195503416
0.0000000000,0.0586510229,0.0000000000,0.0097751703
0.0000000000,0.0488758516,0.0000000000,0.0000000000
0.0000000000,0.0488758516,0.0000000000,0.0097751703
0.0000000000,0.0488758516,0.0000000000,0.0195503416
0.0000000000,0.0391006832,0.0000000000,0.0293255119
0.0000000000,0.0391006832,0.0000000000,0.0195503416
0.0000000000,0.0391006832,0.0000000000,0.0293255119
0.0000000000,0.0391006832,0.0000000000,0.0293255119
0.0000000000,0.0391006832,0.0000000000,0.0293255119
0.0000000000,0.0293255119,0.0000000000,0.0293255119
0.0000000000,0.0195503416,0.0000000000,0.0293255119
0.0000000000,0.0293255119,0.0000000000,0.0293255119
0.0000000000,0.0391006832,0.0000000000,0.0293255119
0.0000000000,0.0391006832,0.0000000000,0.0391006832
0.0000000000,0.0293255119,0.0000000000,0.0391006832
0.0000000000,0.0391006832,0.0000000000,0.0391006832
0.0000000000,0.0391006832,0.0000000000,0.0293255119
0.0000000000,0.0391006832,0.0000000000,0.0293255119
0.0000000000,0.0391006832,0.0000000000,0.0293255119
0.0000000000,0.0391006832,0.0000000000,0.0293255119
0.0000000000,0.0391006832,0.0000000000,0.0195503416
0.0000000000,0.0391006832,0.0000000000,0.0293255119
0.0000000000,0.0391006832,0.0000000000,0.0195503416
0.0000000000,0.0293255119,0.0000000000,0.0293255119
0.0000000000,0.0293255119,0.0000000000,0.0391006832
0.0000000000,0.0391006832,0.0000000000,0.0293255119
0.0000000000,0.0391006832,0.0000000000,0.0391006832
0.0000000000,0.0391006832,0.0000000000,0.0293255119
0.0000000000,0.0391006832,0.0000000000,0.0391006832
0.0000000000,0.0293255119,0.0000000000,0.0391006832
0.0000000000,0.0293255119,0.0000000000,0.0391006832
0.0000000000,0.0293255119,0.0000000000,0.0293255119
0.0000000000,0.0293255119,0.0000000000,0.0293255119
0.0000000000,0.0293255119,0.0000000000,0.0293255119
0.0000000000,0.0195503416,0.0000000000,0.0293255119
0.0000000000,0.0195503416,0.0000000000,0.0293255119
0.0000000000,0.0195503416,0.0000000000,0.0293255119
0.0000000000,0.0195503416,0.0000000000,0.0293255119
0.0000000000,0.0195503416,0.0000000000,0.0293255119
0.0000000000,0.0293255119,0.0000000000,0.0293255119
0.0000000000,0.0684261989,0.0000000000,0.0293255119
0.0000000000,0.0879765415,0.0000000000,0.0391006832
0.0000000000,0.0977517032,0.0000000000,0.0586510229
0.0000000000,0.1270772218,0.0000000000,0.0586510229
0.0000000000,0.1759530782,0.0000000000,0.0684261989
0.0000000000,0.2150537729,0.0000000000,0.0782013654
0.0000000000,0.3225806236,0.0000000000,0.0782013654
0.0000000000,0.3323558330,0.0000000000,0.0977517032
0.0000000000,0.3323558330,0.0000000000,0.0879765415
0.0000000000,0.3421309947,0.0000000000,0.0977517032
0.0000000000,0.4105571746,0.0000000000,0.1270772218
0.0000000000,0.3910068321,0.0000000000,0.1173020482
0.0000000000,0.3714565038,0.0000000000,0.1173020482
0.0000000000,0.3519061565,0.0000000000,0.1270772218
0.0000000000,0.3225806236,0.0000000000,0.1173020482
0.0000000000,0.2737047910,0.0000000000,0.1173020482
0.0000000000,0.2443792819,0.0000000000,0.1173020482
0.0000000000,0.2248289346,0.0000000000,0.1173020482
