1,1.5738025665
2,2.2189638614
3,2.5219941139
4,2.6490714550
5,2.5122189521
6,2.0625610351
7,1.7106549739
8,1.4271749496
9,1.1827956390
10,0.9775171279
11,0.8113391876
12,0.6647116661
13,0.5571847438
14,0.4692081928
15,0.3910068321
16,0.3225806236
17,0.2834799575
18,0.2541544437
19,0.2248289346
20,0.2052785873
21,0.1857282543
22,0.1661779165
23,0.1466275596
24,0.1270772218
25,0.1270772218
26,0.1270772218
27,0.1173020482
28,0.1173020482
29,0.1173020482
30,0.1075268864
31,0.1173020482
32,0.1173020482
33,0.1173020482
34,0.1270772218
35,0.1173020482
36,0.1270772218
37,0.1075268864
38,0.1075268864
39,0.0977517032
40,0.0977517032
41,0.1075268864
42,0.1075268864
43,0.1173020482
44,0.1173020482
45,0.1368523955
46,0.1270772218
47,0.1270772218
48,0.1173020482
49,0.1075268864
50,0.0977517032
51,0.0879765415
52,0.0782013654
53,0.0684261989
54,0.0782013654
55,0.0977517032
56,0.1075268864
57,0.1075268864
58,0.0977517032
59,0.0879765415
60,0.0782013654
61,0.0684261989
62,0.0782013654
63,0.0782013654
64,0.0879765415
65,0.0879765415
66,0.0879765415
67,0.0879765415
68,0.0977517032
69,0.0879765415
70,0.0879765415
71,0.0977517032
72,0.0977517032
73,0.1075268864
74,0.1075268864
75,0.1075268864
76,0.1075268864
77,0.1075268864
78,0.0977517032
79,0.0977517032
80,0.0977517032
81,0.0977517032
82,0.0977517032
83,0.0879765415
84,0.0782013654
85,0.0879765415
86,0.0879765415
87,0.0879765415
88,0.0879765415
89,0.0879765415
90,0.0977517032
91,0.0977517032
92,0.0977517032
93,0.0977517032
94,0.0977517032
95,0.1075268864
96,0.0977517032
97,0.0977517032
98,0.0879765415
99,0.0977517032
100,0.0977517032
101,0.0977517032
102,0.0977517032
103,0.0879765415
104,0.0879765415
105,0.0782013654
106,0.0782013654
107,0.0782013654
108,0.0879765415
109,0.1075268864
110,0.1075268864
111,0.1075268864
112,0.0977517032
113,0.0977517032
114,0.0977517032
115,0.0879765415
116,0.0977517032
117,0.0977517032
118,0.0977517032
119,0.0977517032
120,0.0977517032
121,0.0879765415
122,0.0879765415
123,0.0879765415
124,0.0977517032
125,0.0977517032
126,0.0977517032
127,0.0879765415
128,0.0782013654
129,0.0782013654
130,0.0977517032
131,0.0977517032
132,0.0977517032
133,0.0977517032
134,0.0879765415
135,0.0879765415
136,0.0977517032
137,0.0879765415
138,0.0879765415
139,0.0977517032
140,0.0977517032
141,0.0782013654
142,0.0782013654
143,0.0879765415
144,0.1075268864
145,0.1075268864
146,0.0977517032
147,0.0879765415
148,0.0782013654
149,0.0782013654
150,0.0684261989
151,0.0684261989
152,0.0782013654
153,0.0879765415
154,0.0977517032
155,0.0879765415
156,0.0782013654
157,0.0782013654
158,0.0879765415
159,0.0879765415
160,0.0977517032
161,0.0977517032
162,0.0879765415
163,0.0879765415
164,0.0879765415
165,0.0977517032
166,0.0879765415
167,0.0879765415
168,0.0879765415
169,0.0977517032
170,0.0977517032
171,0.0977517032
172,0.0879765415
173,0.0977517032
174,0.0977517032
175,0.0977517032
176,0.0879765415
177,0.0782013654
178,0.0879765415
179,0.0879765415
180,0.0782013654
181,0.0879765415
182,0.0879765415
183,0.0879765415
184,0.0977517032
185,0.0879765415
186,0.0879765415
187,0.0879765415
188,0.0879765415
189,0.0782013654
190,0.0782013654
191,0.0782013654
192,0.0782013654
193,0.0879765415
194,0.0977517032
195,0.0977517032
196,0.0879765415
197,0.0879765415
198,0.0879765415
199,0.0879765415
200,0.0879765415
201,0.0782013654
202,0.0879765415
203,0.0879765415
204,0.0782013654
205,0.0977517032
206,0.0879765415
207,0.0879765415
208,0.0879765415
209,0.0879765415
210,0.0879765415
211,0.0879765415
212,0.0782013654
213,0.0879765415
214,0.0879765415
215,0.0879765415
216,0.0782013654
217,0.0782013654
218,0.0782013654
219,0.0879765415
220,0.0879765415
221,0.0879765415
222,0.0879765415
223,0.0879765415
224,0.0782013654
225,0.0782013654
226,0.0782013654
227,0.0782013654
228,0.0879765415
229,0.0977517032
230,0.0977517032
231,0.0977517032
232,0.0977517032
233,0.0977517032
234,0.0977517032
235,0.0977517032
236,0.1075268864
237,0.0977517032
238,0.0879765415
239,0.0879765415
240,0.0879765415
241,0.0977517032
242,0.0879765415
243,0.0879765415
244,0.0879765415
245,0.0879765415
246,0.0977517032
247,0.0879765415
248,0.0879765415
249,0.0782013654
250,0.0879765415
251,0.0879765415
252,0.0879765415
253,0.0879765415
254,0.0977517032
255,0.0879765415
256,0.0977517032
257,0.0977517032
258,0.0977517032
259,0.0879765415
260,0.0879765415
261,0.0977517032
262,0.0879765415
263,0.0879765415
264,0.0879765415
265,0.0879765415
266,0.0879765415
267,0.0977517032
268,0.0977517032
269,0.0977517032
270,0.0977517032
271,0.0977517032
272,0.0977517032
273,0.0977517032
274,0.0977517032
275,0.1075268864
276,0.1270772218
277,0.1270772218
278,0.1368523955
279,0.1368523955
280,0.1270772218
281,0.1661779165
282,0.1857282543
283,0.2150537729
284,0.1857282543
285,0.2150537729
286,0.2052785873
287,0.2541544437
288,0.2248289346
289,0.2248289346
290,0.2150537729
291,0.2346040964
292,0.2150537729
293,0.2248289346
294,0.2346040964
295,0.2248289346
296,0.2346040964
297,0.2150537729
298,0.2052785873
299,0.2443792819
300,0.3421309947
301,0.3323558330
302,0.3910068321
303,0.4203323364
304,0.4398827075
305,0.4398827075
306,0.4594330310
307,0.4692081928
308,0.5180840492
309,0.6451612472
310,0.7624633312
311,0.7429130077
312,0.8113391876
313,0.8504399299
314,0.8699902534
315,0.9188660621
316,0.8895405769
317,0.8993157386
318,0.8895405769
319,0.9286412239
320,1.0263929367
321,1.0166177749
322,1.0166177749
323,1.0654937028
324,1.2218964099
325,1.2903225421
326,1.4956011772
327,1.7888562679
328,1.7204301357
329,1.8279570579
330,1.7399804592
331,2.0332355499
332,2.1700880527
333,2.2385141849
334,2.3753664493
335,2.3069403171
336,2.2580645084
337,2.2776148319
338,2.2189638614
339,2.5317692756
340,2.3362658023
341,2.4731183052
342,2.7272727489
343,2.6881721019
344,2.4633431434
345,2.2678396701
346,2.1212120056
347,2.2287390232
348,2.2091886997
349,1.9550342559
350,1.8866080284
351,1.8181818962
352,1.9843597412
353,2.1700880527
354,2.2971651554
355,2.1407625675
356,2.1505377292
357,2.2091886997
358,2.2091886997
359,1.9061583518
360,1.6715541839
361,1.6813293457
362,1.5933528900
363,1.4271749496
364,1.3880742835
365,1.2609970569
366,1.3196481466
367,1.1827956390
368,0.9677418708
369,0.9384163856
370,0.8211143493
371,0.7135874748
372,0.7331378459
373,0.6940371513
374,0.6353860855
375,0.6647116661
376,0.7331378459
377,0.7429130077
378,1.0166177749
379,1.0850440216
380,1.0459432601
381,1.0459432601
382,1.0263929367
383,0.9970674514
384,0.9384163856
385,0.8602150917
386,1.0361680984
387,0.9579667091
388,0.8797654151
389,0.8504399299
390,0.9872922897
391,0.9384163856
392,0.9286412239
393,1.0948191833
394,1.0166177749
395,0.8895405769
396,0.8211143493
397,0.8015640258
398,0.8797654151
399,0.9090909004
400,0.9677418708
401,0.9970674514
402,1.0459432601
403,0.9677418708
404,0.8699902534
405,0.8895405769
406,0.8993157386
407,0.8211143493
408,0.8993157386
409,0.9677418708
410,0.9579667091
411,0.9286412239
412,0.8895405769
413,0.8602150917
414,0.7526881694
415,0.6549364089
416,0.6353860855
417,0.6549364089
418,0.6158357620
419,0.6744868278
420,0.7135874748
421,0.6451612472
422,0.5669599056
423,0.5767350673
424,0.5278592109
425,0.5571847438
426,0.5669599056
427,0.5278592109
428,0.5865102291
429,0.5767350673
430,0.5962854385
431,0.5474095821
432,0.4594330310
433,0.4203323364
434,0.4496578693
435,0.4105571746
436,0.4105571746
437,0.4007820129
438,0.4105571746
439,0.3812316703
440,0.3714565038
441,0.3910068321
442,0.3714565038
443,0.3714565038
444,0.3616813421
445,0.3323558330
446,0.3128054618
447,0.3128054618
448,0.2932551193
449,0.2639296054
450,0.2346040964
451,0.2150537729
452,0.2150537729
453,0.2052785873
454,0.2150537729
455,0.2248289346
456,0.2150537729
457,0.2052785873
458,0.1857282543
459,0.1759530782
460,0.1564027309
461,0.1270772218
462,0.1173020482
463,0.1075268864
464,0.0977517032
465,0.0879765415
466,0.0782013654
467,0.0782013654
468,0.0977517032
469,0.1270772218
470,0.1368523955
471,0.1466275596
472,0.1368523955
473,0.1564027309
474,0.1759530782
475,0.2346040964
476,0.2443792819
477,0.2932551193
478,0.3030303001
479,0.2737047910
480,0.2834799575
481,0.2639296054
482,0.2346040964
483,0.2052785873
484,0.1759530782
485,0.1661779165
486,0.1466275596
487,0.1466275596
488,0.1466275596
489,0.1564027309
490,0.1368523955
491,0.1368523955
492,0.1368523955
493,0.1270772218
494,0.1270772218
495,0.1466275596
496,0.1368523955
497,0.1466275596
498,0.1368523955
499,0.1368523955
500,0.1270772218
501,0.1270772218
502,0.1466275596
503,0.1466275596
504,0.1564027309
505,0.1368523955
506,0.1368523955
507,0.1368523955
508,0.1564027309
509,0.1661779165
510,0.1955034160
511,0.1759530782
512,0.1661779165
513,0.1564027309
514,0.1661779165
515,0.1661779165
516,0.1466275596
517,0.1368523955
518,0.1270772218
519,0.1270772218
520,0.1270772218
521,0.1466275596
522,0.1368523955
523,0.1564027309
524,0.1466275596
525,0.1368523955
526,0.1466275596
527,0.1368523955
528,0.1270772218
529,0.1270772218
530,0.1173020482
531,0.1270772218
532,0.1368523955
533,0.1270772218
534,0.1173020482
535,0.1075268864
536,0.1075268864
537,0.1270772218
538,0.1368523955
539,0.1270772218
540,0.1173020482
541,0.1270772218
542,0.1270772218
543,0.1270772218
544,0.1270772218
545,0.1270772218
546,0.1270772218
547,0.1466275596
548,0.1466275596
549,0.1368523955
550,0.1368523955
551,0.1466275596
552,0.1466275596
553,0.1466275596
554,0.1564027309
555,0.1564027309
556,0.1564027309
557,0.1564027309
558,0.1661779165
559,0.1466275596
560,0.1564027309
561,0.1466275596
562,0.1466275596
563,0.1368523955
564,0.1368523955
565,0.1368523955
566,0.1466275596
567,0.1466275596
568,0.1466275596
569,0.1466275596
570,0.1368523955
571,0.1466275596
572,0.1564027309
573,0.1955034160
574,0.1857282543
575,0.1759530782
576,0.1466275596
577,0.1466275596
578,0.1564027309
579,0.1564027309
580,0.1368523955
581,0.1368523955
582,0.1564027309
583,0.1466275596
584,0.1466275596
585,0.1466275596
586,0.1466275596
587,0.1466275596
588,0.1661779165
589,0.1466275596
590,0.1466275596
591,0.1466275596
592,0.1564027309
593,0.1466275596
594,0.1466275596
595,0.1466275596
596,0.1564027309
597,0.1368523955
598,0.1564027309
599,0.1466275596
600,0.1368523955
601,0.1466275596
602,0.1368523955
603,0.1270772218
604,0.1368523955
605,0.1368523955
606,0.1466275596
607,0.1368523955
608,0.1270772218
609,0.1368523955
610,0.1368523955
611,0.1173020482
612,0.1270772218
613,0.1173020482
614,0.1173020482
615,0.1270772218
616,0.1270772218
617,0.1368523955
618,0.1368523955
619,0.1270772218
620,0.1173020482
621,0.1270772218
622,0.1270772218
623,0.1075268864
624,0.1075268864
625,0.1173020482
626,0.1173020482
627,0.1173020482
628,0.1173020482
629,0.1173020482
630,0.1173020482
631,0.1173020482
632,0.1075268864
633,0.1173020482
634,0.1075268864
635,0.1075268864
636,0.1075268864
637,0.1075268864
638,0.1075268864
639,0.0977517032
640,0.0977517032
641,0.1075268864
642,0.1075268864
643,0.1075268864
644,0.1075268864
645,0.1075268864
646,0.1075268864
647,0.1173020482
648,0.1173020482
649,0.0977517032
650,0.0879765415
651,0.0879765415
652,0.0782013654
653,0.1075268864
654,0.1173020482
655,0.1173020482
656,0.1173020482
657,0.1270772218
658,0.1368523955
659,0.1368523955
660,0.1368523955
661,0.1270772218
662,0.1075268864
663,0.1270772218
664,0.1270772218
665,0.1270772218
666,0.1368523955
667,0.1270772218
668,0.1270772218
669,0.1270772218
670,0.1270772218
671,0.0977517032
672,0.0879765415
673,0.0782013654
674,0.0879765415
675,0.0879765415
676,0.0782013654
677,0.0977517032
678,0.0879765415
679,0.0879765415
680,0.1173020482
681,0.1270772218
682,0.1173020482
683,0.1173020482
684,0.1075268864
685,0.1075268864
686,0.0977517032
687,0.0977517032
688,0.0977517032
689,0.0879765415
690,0.0879765415
691,0.0977517032
692,0.1270772218
693,0.1270772218
694,0.1173020482
695,0.1270772218
696,0.1270772218
697,0.1368523955
698,0.1173020482
699,0.0977517032
700,0.1173020482
701,0.0977517032
702,0.0879765415
703,0.1075268864
704,0.1173020482
705,0.1075268864
706,0.0977517032
707,0.0977517032
708,0.1075268864
709,0.1173020482
710,0.1075268864
711,0.1075268864
712,0.0977517032
713,0.0977517032
714,0.0977517032
715,0.0879765415
716,0.0977517032
717,0.1270772218
718,0.1368523955
719,0.1173020482
720,0.1368523955
721,0.1661779165
722,0.1661779165
723,0.1661779165
724,0.1661779165
725,0.1564027309
726,0.1955034160
727,0.1857282543
728,0.1857282543
729,0.1955034160
730,0.1955034160
731,0.2834799575
732,0.2639296054
733,0.2932551193
734,0.2639296054
735,0.3323558330
736,0.3421309947
737,0.3421309947
738,0.3128054618
739,0.3616813421
740,0.3616813421
741,0.3421309947
742,0.3421309947
743,0.3225806236
744,0.3225806236
745,0.3910068321
746,0.4203323364
747,0.4692081928
748,0.5180840492
749,0.5865102291
750,0.6060606002
751,0.6256109237
752,0.6060606002
753,0.6256109237
754,0.7820136547
755,0.7624633312
756,0.8113391876
757,0.9188660621
758,0.8602150917
759,0.8113391876
760,0.7526881694
761,0.8993157386
762,1.1045943498
763,1.2023460865
764,1.6520038604
765,1.4565005302
766,1.4467253684
767,1.5444769859
768,1.4467253684
769,1.5053763389
770,1.4956011772
771,1.7595307826
772,1.8768328666
773,2.1212120056
774,2.0918865203
775,2.0234603881
776,2.1016616821
777,2.1896383762
778,2.3753664493
779,2.3851418495
780,2.2091886997
781,2.2580645084
782,2.4144673347
783,2.4340176582
784,2.5317692756
785,2.8347995758
786,2.7565982341
787,2.7174975872
788,2.6392962932
789,2.5806450843
790,2.3753664493
791,2.2776148319
792,2.1309874057
793,1.9257086753
794,1.8670577049
795,1.7497556209
796,1.5738025665
797,1.3880742835
798,1.3294233083
799,1.2414467334
800,1.1045943498
801,0.9481915473
802,0.9481915473
803,0.8895405769
804,0.8504399299
805,0.7624633312
806,0.7038123130
807,0.6451612472
808,0.6256109237
809,0.6451612472
810,0.6451612472
811,0.6353860855
812,0.6647116661
813,0.6353860855
814,0.6256109237
815,0.6158357620
816,0.6256109237
817,0.6940371513
818,0.7233626842
819,0.8308895111
820,0.7917888641
821,0.7233626842
822,0.7135874748
823,0.7820136547
824,0.8113391876
825,0.7624633312
826,0.9188660621
827,1.0166177749
828,1.0068426132
829,0.9970674514
830,1.1143695116
831,1.1045943498
832,1.1143695116
833,1.0557184219
834,0.9872922897
835,1.0459432601
836,1.1045943498
837,1.0263929367
838,1.0557184219
839,0.9775171279
840,0.9090909004
841,0.9286412239
842,1.0166177749
843,1.0068426132
844,1.0361680984
845,1.0166177749
846,0.9286412239
847,0.9970674514
848,1.0654937028
849,1.0068426132
850,1.0850440216
851,1.0068426132
852,0.9677418708
853,0.8895405769
854,0.8406646728
855,0.8699902534
856,0.7917888641
857,0.7820136547
858,0.8993157386
859,0.8308895111
860,0.7331378459
861,0.7820136547
862,0.7135874748
863,0.7624633312
864,0.8699902534
865,0.9188660621
866,0.8308895111
867,0.7624633312
868,0.7331378459
869,0.7722384929
870,0.7526881694
871,0.7429130077
872,0.7917888641
873,0.7135874748
874,0.6451612472
875,0.6842619895
876,0.7331378459
877,0.6647116661
878,0.5962854385
879,0.6549364089
880,0.6549364089
881,0.5962854385
882,0.5180840492
883,0.4789833545
884,0.5180840492
885,0.4789833545
886,0.4398827075
887,0.4887585639
888,0.4594330310
889,0.4203323364
890,0.4105571746
891,0.3616813421
892,0.3421309947
893,0.2932551193
894,0.3030303001
895,0.2737047910
896,0.2639296054
897,0.2443792819
898,0.2248289346
899,0.2052785873
900,0.1857282543
901,0.1759530782
902,0.1857282543
903,0.2052785873
904,0.1955034160
905,0.1857282543
906,0.1759530782
907,0.1661779165
908,0.1564027309
909,0.1368523955
910,0.1368523955
911,0.1270772218
912,0.1368523955
913,0.1466275596
914,0.1466275596
915,0.1466275596
916,0.1368523955
917,0.1466275596
918,0.1661779165
919,0.1661779165
920,0.1661779165
921,0.1564027309
922,0.1466275596
923,0.1368523955
924,0.1173020482
925,0.0977517032
926,0.0782013654
927,0.0782013654
928,0.0879765415
929,0.0879765415
930,0.0879765415
931,0.0977517032
932,0.0977517032
933,0.0879765415
934,0.0782013654
935,0.0977517032
936,0.1173020482
937,0.1173020482
938,0.1075268864
939,0.0977517032
940,0.0879765415
941,0.1075268864
942,0.1075268864
943,0.1368523955
944,0.1270772218
945,0.1270772218
946,0.1075268864
947,0.0977517032
948,0.0977517032
949,0.1075268864
950,0.1173020482
951,0.1075268864
952,0.0977517032
953,0.0782013654
954,0.0977517032
955,0.1075268864
956,0.0977517032
957,0.0977517032
958,0.0977517032
959,0.1173020482
960,0.1075268864
961,0.1173020482
962,0.1075268864
963,0.1075268864
964,0.1270772218
965,0.1173020482
966,0.1075268864
967,0.0879765415
968,0.0879765415
969,0.0879765415
970,0.0879765415
971,0.0782013654
972,0.0782013654
973,0.0684261989
974,0.0977517032
975,0.1368523955
976,0.1661779165
977,0.1564027309
978,0.1466275596
979,0.1368523955
980,0.1270772218
981,0.1466275596
982,0.1368523955
983,0.1270772218
984,0.1075268864
985,0.1075268864
986,0.1173020482
987,0.1173020482
988,0.0977517032
989,0.0977517032
990,0.0879765415
991,0.0782013654
992,0.0782013654
993,0.0879765415
994,0.0879765415
995,0.0977517032
996,0.1075268864
997,0.1173020482
998,0.1173020482
999,0.1075268864
1000,0.1270772218
1001,2.8543498992
1002,2.7174975872
1003,2.3167154788
1004,2.1212120056
1005,1.8475073814
1006,1.7008798122
1007,1.5542521476
1008,1.4662756919
1009,1.4760508537
1010,1.4271749496
1011,1.3391984701
1012,1.2316715717
1013,1.0654937028
1014,0.9384163856
1015,0.8015640258
1016,0.6940371513
1017,0.6256109237
1018,0.5474095821
1019,0.5767350673
1020,0.5180840492
1021,0.5376344203
1022,0.5865102291
1023,0.5669599056
1024,0.5083088874
1025,0.4887585639
1026,0.4398827075
1027,0.4301075458
1028,0.3812316703
1029,0.3519061565
1030,0.3323558330
1031,0.4007820129
1032,0.3616813421
1033,0.3519061565
1034,0.3323558330
1035,0.3128054618
1036,0.3030303001
1037,0.3030303001
1038,0.2834799575
1039,0.2834799575
1040,0.3030303001
1041,0.3812316703
1042,0.4496578693
1043,0.4594330310
1044,0.4789833545
1045,0.4985337257
1046,0.5767350673
1047,0.6158357620
1048,0.6060606002
1049,0.6158357620
1050,0.6256109237
1051,0.6158357620
1052,0.5962854385
1053,0.6256109237
1054,0.5962854385
1055,0.6256109237
1056,0.5865102291
1057,0.6158357620
1058,0.6256109237
1059,0.6647116661
1060,0.6940371513
1061,0.8797654151
1062,0.9481915473
1063,0.8308895111
1064,0.7429130077
1065,0.9579667091
1066,0.9384163856
1067,0.8895405769
1068,0.8211143493
1069,0.7722384929
1070,0.7722384929
1071,0.8504399299
1072,0.7429130077
1073,0.6256109237
1074,0.6647116661
1075,0.6940371513
1076,0.7526881694
1077,0.7624633312
1078,0.7526881694
1079,0.6647116661
1080,0.6158357620
1081,0.5767350673
1082,0.5962854385
1083,0.5376344203
1084,0.5669599056
1085,0.5278592109
1086,0.4887585639
1087,0.4692081928
1088,0.4594330310
1089,0.4985337257
1090,0.6744868278
1091,0.6647116661
1092,0.6158357620
1093,0.6158357620
1094,0.5669599056
1095,0.5962854385
1096,0.5571847438
1097,0.4789833545
1098,0.4398827075
1099,0.4007820129
1100,0.3616813421
1101,0.4398827075
1102,0.4203323364
1103,0.3714565038
1104,0.3519061565
1105,0.3910068321
1106,0.3812316703
1107,0.3616813421
1108,0.3519061565
1109,0.3225806236
1110,0.3030303001
1111,0.3128054618
1112,0.2737047910
1113,0.2639296054
1114,0.2737047910
1115,0.2639296054
1116,0.2639296054
1117,0.2443792819
1118,0.2346040964
1119,0.2150537729
1120,0.1955034160
1121,0.1857282543
1122,0.1759530782
1123,0.1759530782
1124,0.1466275596
1125,0.1564027309
1126,0.1661779165
1127,0.1564027309
1128,0.1759530782
1129,0.1955034160
1130,0.1955034160
1131,0.1661779165
1132,0.1564027309
1133,0.1564027309
1134,0.1661779165
1135,0.1661779165
1136,0.1466275596
1137,0.1368523955
1138,0.1270772218
1139,0.1075268864
1140,0.1173020482
1141,0.1075268864
1142,0.1075268864
1143,0.1075268864
1144,0.0977517032
1145,0.1075268864
1146,0.1173020482
1147,0.1075268864
1148,0.1075268864
1149,0.1173020482
1150,0.1270772218
1151,0.1173020482
1152,0.0977517032
1153,0.0977517032
1154,0.0879765415
1155,0.0879765415
1156,0.0879765415
1157,0.0879765415
1158,0.0782013654
1159,0.1075268864
1160,0.0977517032
1161,0.0879765415
1162,0.0782013654
1163,0.0782013654
1164,0.0879765415
1165,0.0879765415
1166,0.0782013654
1167,0.0782013654
1168,0.0879765415
1169,0.0879765415
1170,0.0879765415
1171,0.0879765415
1172,0.0879765415
1173,0.0782013654
1174,0.0684261989
1175,0.0684261989
1176,0.0684261989
1177,0.0684261989
1178,0.0684261989
1179,0.0782013654
1180,0.0782013654
1181,0.0879765415
1182,0.0879765415
1183,0.0977517032
1184,0.0977517032
1185,0.0977517032
1186,0.0977517032
1187,0.0977517032
1188,0.0977517032
1189,0.0879765415
1190,0.0782013654
1191,0.0879765415
1192,0.0782013654
1193,0.0977517032
1194,0.0879765415
1195,0.0879765415
1196,0.0879765415
1197,0.0879765415
1198,0.0879765415
1199,0.0879765415
1200,0.0879765415
1201,0.0879765415
1202,0.0782013654
1203,0.0879765415
1204,0.0879765415
1205,0.0879765415
1206,0.0782013654
1207,0.0782013654
1208,0.0879765415
1209,0.0782013654
1210,0.0782013654
1211,0.0782013654
1212,0.0782013654
1213,0.0782013654
1214,0.0782013654
1215,0.0782013654
1216,0.0684261989
1217,0.0684261989
1218,0.0782013654
1219,0.0684261989
1220,0.0782013654
1221,0.0782013654
1222,0.0782013654
1223,0.0782013654
1224,0.0782013654
1225,0.0684261989
1226,0.0684261989
1227,0.0684261989
1228,0.0782013654
1229,0.0782013654
1230,0.0782013654
1231,0.0782013654
1232,0.0782013654
1233,0.0782013654
1234,0.0782013654
1235,0.0782013654
1236,0.0782013654
1237,0.0684261989
1238,0.0782013654
1239,0.0782013654
1240,0.0782013654
1241,0.0782013654
1242,0.0782013654
1243,0.0782013654
1244,0.0782013654
1245,0.0782013654
1246,0.0782013654
1247,0.0782013654
1248,0.0782013654
1249,0.0782013654
1250,0.0782013654
1251,0.0782013654
1252,0.0782013654
1253,0.0879765415
1254,0.0782013654
1255,0.0782013654
1256,0.0879765415
1257,0.0977517032
1258,0.0977517032
1259,0.0977517032
1260,0.0977517032
1261,0.0977517032
1262,0.0977517032
1263,0.1075268864
1264,0.1075268864
1265,0.0879765415
1266,0.0879765415
1267,0.0879765415
1268,0.0977517032
1269,0.0977517032
1270,0.1075268864
1271,0.0977517032
1272,0.0977517032
1273,0.1075268864
1274,0.0977517032
1275,0.1075268864
1276,0.0977517032
1277,0.0977517032
1278,0.0977517032
1279,0.0977517032
1280,0.0977517032
1281,0.0977517032
1282,0.0977517032
1283,0.0879765415
1284,0.0879765415
1285,0.0879765415
1286,0.0879765415
1287,0.0879765415
1288,0.0879765415
1289,0.0879765415
1290,0.0879765415
1291,0.0782013654
1292,0.0879765415
1293,0.0782013654
1294,0.0782013654
1295,0.0879765415
1296,0.0879765415
1297,0.0879765415
1298,0.0782013654
1299,0.0879765415
1300,0.0782013654
1301,0.0879765415
1302,0.0782013654
1303,0.0782013654
1304,0.0782013654
1305,0.0879765415
1306,0.0879765415
1307,0.0879765415
1308,0.0879765415
1309,0.0977517032
1310,0.0879765415
1311,0.0977517032
1312,0.0879765415
1313,0.0879765415
1314,0.0782013654
1315,0.0782013654
1316,0.0782013654
1317,0.0782013654
1318,0.0782013654
1319,0.0684261989
1320,0.0782013654
1321,0.0684261989
1322,0.0684261989
1323,0.0684261989
1324,0.0782013654
1325,0.0684261989
1326,0.0684261989
1327,0.0684261989
1328,0.0684261989
1329,0.0684261989
1330,0.0684261989
1331,0.0684261989
1332,0.0782013654
1333,0.0782013654
1334,0.0879765415
1335,0.0782013654
1336,0.0782013654
1337,0.0879765415
1338,0.0879765415
1339,0.0782013654
1340,0.0782013654
1341,0.0782013654
1342,0.0782013654
1343,0.0782013654
1344,0.0782013654
1345,0.0782013654
1346,0.0782013654
1347,0.0782013654
1348,0.0782013654
1349,0.0782013654
1350,0.0782013654
1351,0.0782013654
1352,0.0782013654
1353,0.0782013654
1354,0.0782013654
1355,0.0782013654
1356,0.0782013654
1357,0.0782013654
1358,0.0782013654
1359,0.0782013654
1360,0.0782013654
1361,0.0782013654
1362,0.0782013654
1363,0.0879765415
1364,0.0782013654
1365,0.0879765415
1366,0.1075268864
1367,0.1173020482
1368,0.1173020482
1369,0.1368523955
1370,0.1368523955
1371,0.1270772218
1372,0.1368523955
1373,0.1368523955
1374,0.1368523955
1375,0.1564027309
1376,0.1759530782
1377,0.1857282543
1378,0.1857282543
1379,0.1759530782
1380,0.1955034160
1381,0.2150537729
1382,0.2052785873
1383,0.1857282543
1384,0.2443792819
1385,0.2639296054
1386,0.2639296054
1387,0.2541544437
1388,0.2834799575
1389,0.2932551193
1390,0.2932551193
1391,0.2834799575
1392,0.3225806236
1393,0.2932551193
1394,0.3030303001
1395,0.3030303001
1396,0.2932551193
1397,0.3030303001
1398,0.3128054618
1399,0.3323558330
1400,0.3323558330
1401,0.3812316703
1402,0.4398827075
1403,0.4398827075
1404,0.4203323364
1405,0.4203323364
1406,0.4985337257
1407,0.5767350673
1408,0.5083088874
1409,0.4594330310
1410,0.5278592109
1411,0.4789833545
1412,0.4692081928
1413,0.5571847438
1414,0.5865102291
1415,0.6353860855
1416,0.5962854385
1417,0.6158357620
1418,0.6256109237
1419,0.6744868278
1420,0.7038123130
1421,0.6940371513
1422,0.6744868278
1423,0.6744868278
1424,0.7624633312
1425,0.8015640258
1426,0.9872922897
1427,0.8993157386
1428,0.9579667091
1429,1.1436949968
1430,1.0850440216
1431,1.0654937028
1432,1.2512218952
1433,1.2023460865
1434,1.2414467334
1435,1.2903225421
1436,1.4369501113
1437,1.3587487936
1438,1.3587487936
1439,1.4467253684
1440,1.4956011772
1441,1.4076246261
1442,1.3880742835
1443,1.3978494453
1444,1.4467253684
1445,1.3978494453
1446,1.7106549739
1447,1.6715541839
1448,1.4858260154
1449,1.5249266624
1450,1.3098728656
1451,1.2414467334
1452,1.1436949968
1453,1.0459432601
1454,0.9970674514
1455,0.9775171279
1456,0.9188660621
1457,1.3489736318
1458,1.2903225421
1459,1.3391984701
1460,1.2414467334
1461,1.3196481466
1462,1.1925709247
1463,1.1436949968
1464,1.1436949968
1465,1.1827956390
1466,1.2218964099
1467,1.1241446733
1468,1.0948191833
1469,1.0557184219
1470,0.9481915473
1471,1.1241446733
1472,1.0459432601
1473,1.0948191833
1474,1.1143695116
1475,1.0557184219
1476,1.0459432601
1477,1.0850440216
1478,1.2218964099
1479,1.1925709247
1480,1.2414467334
1481,1.2121212482
1482,1.2023460865
1483,1.1925709247
1484,1.0850440216
1485,1.0752688646
1486,1.0068426132
1487,0.9384163856
1488,1.0068426132
1489,0.9384163856
1490,0.9677418708
1491,1.1730204820
1492,1.0654937028
1493,1.0557184219
1494,0.9872922897
1495,0.9481915473
1496,0.9384163856
1497,0.9188660621
1498,0.8602150917
1499,0.8308895111
1500,0.8015640258
1501,0.7722384929
1502,0.6549364089
1503,0.5865102291
1504,0.5571847438
1505,0.5278592109
1506,0.4887585639
1507,0.4887585639
1508,0.5180840492
1509,0.5376344203
1510,0.5180840492
1511,0.4789833545
1512,0.4887585639
1513,0.4398827075
1514,0.4301075458
1515,0.5474095821
1516,0.5278592109
1517,0.5278592109
1518,0.5180840492
1519,0.4692081928
1520,0.4203323364
1521,0.3812316703
1522,0.3812316703
1523,0.4301075458
1524,0.4007820129
1525,0.3519061565
1526,0.3323558330
1527,0.3323558330
1528,0.3128054618
1529,0.2737047910
1530,0.2932551193
1531,0.2639296054
1532,0.2541544437
1533,0.2346040964
1534,0.2346040964
1535,0.2150537729
1536,0.2150537729
1537,0.2052785873
1538,0.2150537729
1539,0.2150537729
1540,0.2248289346
1541,0.1955034160
1542,0.1955034160
1543,0.2052785873
1544,0.1759530782
1545,0.1466275596
1546,0.1270772218
1547,0.1075268864
1548,0.0879765415
1549,0.0977517032
1550,0.0879765415
1551,0.0879765415
1552,0.0977517032
1553,0.0879765415
1554,0.1075268864
1555,0.1075268864
1556,0.1173020482
1557,0.1075268864
1558,0.1075268864
1559,0.0977517032
1560,0.0977517032
1561,0.1075268864
1562,0.1075268864
1563,0.0977517032
1564,0.0977517032
1565,0.0879765415
1566,0.0977517032
1567,0.0879765415
1568,0.0879765415
1569,0.0879765415
1570,0.0879765415
1571,0.0879765415
1572,0.0879765415
1573,0.0879765415
1574,0.0879765415
1575,0.0879765415
1576,0.0879765415
1577,0.0879765415
1578,0.0782013654
1579,0.0977517032
1580,0.0879765415
1581,0.0879765415
1582,0.0879765415
1583,0.0879765415
1584,0.0977517032
1585,0.0977517032
1586,0.0977517032
1587,0.0977517032
1588,0.1075268864
1589,0.1075268864
1590,0.0977517032
1591,0.0977517032
1592,0.0977517032
1593,0.0879765415
1594,0.0977517032
1595,0.0977517032
1596,0.1075268864
1597,0.1075268864
1598,0.1075268864
1599,0.1075268864
1600,0.0977517032
1601,0.1075268864
1602,0.1075268864
1603,0.1075268864
1604,0.1075268864
1605,0.0977517032
1606,0.0977517032
1607,0.0977517032
1608,0.0879765415
1609,0.0879765415
1610,0.0977517032
1611,0.0879765415
1612,0.0879765415
1613,0.0879765415
1614,0.0782013654
1615,0.0879765415
1616,0.0879765415
1617,0.0782013654
1618,0.0782013654
1619,0.0879765415
1620,0.0879765415
1621,0.0879765415
1622,0.0879765415
1623,0.0879765415
1624,0.0782013654
1625,0.0879765415
1626,0.0879765415
1627,0.0977517032
1628,0.0879765415
1629,0.0879765415
1630,0.0977517032
1631,0.0977517032
1632,0.0977517032
1633,0.0977517032
1634,0.0977517032
1635,0.1075268864
1636,0.0977517032
1637,0.0879765415
1638,0.0977517032
1639,0.0977517032
1640,0.0977517032
1641,0.0879765415
1642,0.0879765415
1643,0.0879765415
1644,0.0879765415
1645,0.0879765415
1646,0.0782013654
1647,0.0782013654
1648,0.0782013654
1649,0.0782013654
1650,0.0782013654
1651,0.0782013654
1652,0.0782013654
1653,0.0684261989
1654,0.0782013654
1655,0.0782013654
1656,0.0684261989
1657,0.0684261989
1658,0.0684261989
1659,0.0684261989
1660,0.0684261989
1661,0.0684261989
1662,0.0684261989
1663,0.0684261989
1664,0.0684261989
1665,0.0684261989
1666,0.0586510229
1667,0.0684261989
1668,0.0684261989
1669,0.0684261989
1670,0.0684261989
1671,0.0586510229
1672,0.0684261989
1673,0.0684261989
1674,0.0879765415
1675,0.0782013654
1676,0.0782013654
1677,0.0782013654
1678,0.0782013654
1679,0.0879765415
1680,0.0977517032
1681,0.0879765415
1682,0.0879765415
1683,0.0879765415
1684,0.0879765415
1685,0.0879765415
1686,0.0879765415
1687,0.0879765415
1688,0.0879765415
1689,0.0879765415
1690,0.0782013654
1691,0.0684261989
1692,0.0684261989
1693,0.0684261989
1694,0.0782013654
1695,0.0782013654
1696,0.0782013654
1697,0.0782013654
1698,0.0782013654
1699,0.0782013654
1700,0.0782013654
1701,0.0782013654
1702,0.0782013654
1703,0.0782013654
1704,0.0782013654
1705,0.0782013654
1706,0.0782013654
1707,0.0782013654
1708,0.0782013654
1709,0.0879765415
1710,0.0782013654
1711,0.0782013654
1712,0.0782013654
1713,0.0879765415
1714,0.0782013654
1715,0.0782013654
1716,0.0879765415
1717,0.0879765415
1718,0.0879765415
1719,0.0879765415
1720,0.0782013654
1721,0.0782013654
1722,0.0782013654
1723,0.0782013654
1724,0.0879765415
1725,0.0879765415
1726,0.0782013654
1727,0.0684261989
1728,0.0782013654
1729,0.0879765415
1730,0.0879765415
1731,0.0782013654
1732,0.0879765415
1733,0.0879765415
1734,0.0879765415
1735,0.0879765415
1736,0.0879765415
1737,0.0782013654
1738,0.0879765415
1739,0.0782013654
1740,0.0782013654
1741,0.0782013654
1742,0.0782013654
1743,0.0782013654
1744,0.0782013654
1745,0.0782013654
1746,0.0879765415
1747,0.0879765415
1748,0.0879765415
1749,0.0879765415
1750,0.0879765415
1751,0.0879765415
1752,0.0879765415
1753,0.0879765415
1754,0.0879765415
1755,0.0977517032
1756,0.0977517032
1757,0.0977517032
1758,0.0977517032
1759,0.0879765415
1760,0.0977517032
1761,0.0879765415
1762,0.0977517032
1763,0.0977517032
1764,0.1075268864
1765,0.0977517032
1766,0.1075268864
1767,0.1173020482
1768,0.1075268864
1769,0.1075268864
1770,0.1075268864
1771,0.1075268864
1772,0.1173020482
1773,0.1173020482
1774,0.1270772218
1775,0.1270772218
1776,0.1368523955
1777,0.1270772218
1778,0.1368523955
1779,0.1368523955
1780,0.1368523955
1781,0.1466275596
1782,0.1564027309
1783,0.1759530782
1784,0.1857282543
1785,0.1759530782
1786,0.1564027309
1787,0.1661779165
1788,0.1661779165
1789,0.1759530782
1790,0.2150537729
1791,0.2052785873
1792,0.2443792819
1793,0.2443792819
1794,0.2541544437
1795,0.2541544437
1796,0.2443792819
1797,0.2834799575
1798,0.3323558330
1799,0.3519061565
1800,0.3714565038
1801,0.4594330310
1802,0.4692081928
1803,0.4594330310
1804,0.5180840492
1805,0.5180840492
1806,0.5571847438
1807,0.5962854385
1808,0.5474095821
1809,0.5474095821
1810,0.5083088874
1811,0.5767350673
1812,0.6060606002
1813,0.6353860855
1814,0.6940371513
1815,0.6744868278
1816,0.7038123130
1817,0.6940371513
1818,0.7429130077
1819,0.6647116661
1820,0.6549364089
1821,0.6744868278
1822,0.7135874748
1823,0.6744868278
1824,0.8895405769
1825,0.9481915473
1826,1.0166177749
1827,1.0752688646
1828,1.2023460865
1829,1.2121212482
1830,1.2805473804
1831,1.2903225421
1832,1.2121212482
1833,1.2316715717
1834,1.1632453203
1835,1.4369501113
1836,1.6813293457
1837,1.7693059444
1838,1.6715541839
1839,1.6617790222
1840,1.6226783752
1841,1.6715541839
1842,1.5933528900
1843,1.5151515007
1844,1.4662756919
1845,1.4271749496
1846,1.5347018241
1847,1.5347018241
1848,1.4956011772
1849,1.4271749496
1850,1.2218964099
1851,1.0557184219
1852,1.0263929367
1853,1.0068426132
1854,0.9579667091
1855,0.8699902534
1856,0.8895405769
1857,0.8699902534
1858,0.8504399299
1859,0.7722384929
1860,0.7233626842
1861,0.6060606002
1862,0.5278592109
1863,0.4594330310
1864,0.4594330310
1865,0.4398827075
1866,0.3910068321
1867,0.4203323364
1868,0.3812316703
1869,0.3323558330
1870,0.3519061565
1871,0.3812316703
1872,0.3519061565
1873,0.3714565038
1874,0.3421309947
1875,0.3910068321
1876,0.4692081928
1877,0.4301075458
1878,0.4496578693
1879,0.4887585639
1880,0.5571847438
1881,0.6256109237
1882,0.6256109237
1883,0.5865102291
1884,0.6060606002
1885,0.5571847438
1886,0.5278592109
1887,0.6060606002
1888,0.6549364089
1889,0.6549364089
1890,0.6353860855
1891,0.6940371513
1892,0.6744868278
1893,0.6353860855
1894,0.5767350673
1895,0.6451612472
1896,0.7135874748
1897,0.6940371513
1898,0.8113391876
1899,0.7233626842
1900,0.6842619895
1901,0.7135874748
1902,0.6940371513
1903,0.7233626842
1904,0.7233626842
1905,0.6549364089
1906,0.6940371513
1907,0.7429130077
1908,0.7526881694
1909,0.9481915473
1910,0.9970674514
1911,0.8993157386
1912,0.8113391876
1913,0.7135874748
1914,0.7624633312
1915,0.8797654151
1916,0.8895405769
1917,1.1730204820
1918,1.1045943498
1919,1.0948191833
1920,0.9579667091
1921,0.9481915473
1922,0.9090909004
1923,0.8895405769
1924,0.8113391876
1925,0.9384163856
1926,0.9286412239
1927,0.8113391876
1928,0.7429130077
1929,0.7429130077
1930,0.7722384929
1931,0.6940371513
1932,0.6158357620
1933,0.5669599056
1934,0.5180840492
1935,0.4692081928
1936,0.5180840492
1937,0.5180840492
1938,0.5180840492
1939,0.5278592109
1940,0.5767350673
1941,0.5474095821
1942,0.5278592109
1943,0.5376344203
1944,0.5474095821
1945,0.5376344203
1946,0.4985337257
1947,0.4985337257
1948,0.5278592109
1949,0.5180840492
1950,0.4887585639
1951,0.4398827075
1952,0.4301075458
1953,0.3714565038
1954,0.3519061565
1955,0.3030303001
1956,0.2737047910
1957,0.2932551193
1958,0.2932551193
1959,0.3128054618
1960,0.3225806236
1961,0.3128054618
1962,0.3225806236
1963,0.3128054618
1964,0.2932551193
1965,0.3030303001
1966,0.2932551193
1967,0.3128054618
1968,0.3030303001
1969,0.2639296054
1970,0.2834799575
1971,0.2737047910
1972,0.2737047910
1973,0.2639296054
1974,0.2346040964
1975,0.2443792819
1976,0.2150537729
1977,0.1955034160
1978,0.1955034160
1979,0.1857282543
1980,0.1857282543
1981,0.1661779165
1982,0.1564027309
1983,0.1661779165
1984,0.1564027309
1985,0.1466275596
1986,0.1368523955
1987,0.1270772218
1988,0.1173020482
1989,0.1368523955
1990,0.1466275596
1991,0.1466275596
1992,0.1564027309
1993,0.1466275596
1994,0.1466275596
1995,0.1466275596
1996,0.1270772218
1997,0.1075268864
1998,0.0977517032
1999,0.0977517032
2000,0.1075268864
2001,0.9579667091
2002,0.7917888641
2003,0.6549364089
2004,0.5474095821
2005,0.4496578693
2006,0.3910068321
2007,0.3421309947
2008,0.3030303001
2009,0.2639296054
2010,0.2346040964
2011,0.2150537729
2012,0.2052785873
2013,0.1759530782
2014,0.1759530782
2015,0.1661779165
2016,0.1759530782
2017,0.1759530782
2018,0.1661779165
2019,0.1661779165
2020,0.1857282543
2021,0.1759530782
2022,0.1955034160
2023,0.2248289346
2024,0.2150537729
2025,0.2443792819
2026,0.2541544437
2027,0.2834799575
2028,0.3323558330
2029,0.3421309947
2030,0.3616813421
2031,0.4105571746
2032,0.4203323364
2033,0.4105571746
2034,0.3910068321
2035,0.4203323364
2036,0.4887585639
2037,0.4496578693
2038,0.4985337257
2039,0.5278592109
2040,0.5180840492
2041,0.5180840492
2042,0.5376344203
2043,0.5669599056
2044,0.5376344203
2045,0.5865102291
2046,0.6158357620
2047,0.5767350673
2048,0.5865102291
2049,0.6256109237
2050,0.5962854385
2051,0.6549364089
2052,0.7331378459
2053,0.7038123130
2054,0.7135874748
2055,0.7331378459
2056,0.8015640258
2057,0.8308895111
2058,0.9579667091
2059,0.9872922897
2060,1.0557184219
2061,1.0948191833
2062,1.1534701585
2063,1.0654937028
2064,1.1143695116
2065,1.1632453203
2066,1.2512218952
2067,1.2316715717
2068,1.1241446733
2069,1.1730204820
2070,1.2121212482
2071,1.2609970569
2072,1.1925709247
2073,1.1339198350
2074,1.1436949968
2075,1.0850440216
2076,1.1436949968
2077,1.2023460865
2078,1.2805473804
2079,1.4173997879
2080,1.3098728656
2081,1.2512218952
2082,1.2805473804
2083,1.2609970569
2084,1.2903225421
2085,1.2414467334
2086,1.2609970569
2087,1.3587487936
2088,1.2903225421
2089,1.2805473804
2090,1.3098728656
2091,1.2903225421
2092,1.2023460865
2093,1.3391984701
2094,1.2609970569
2095,1.4565005302
2096,1.3978494453
2097,1.5444769859
2098,1.4662756919
2099,1.3587487936
2100,1.3587487936
2101,1.2414467334
2102,1.1730204820
2103,1.0068426132
2104,0.8504399299
2105,0.7820136547
2106,0.7526881694
2107,0.7135874748
2108,0.6451612472
2109,0.5571847438
2110,0.5278592109
2111,0.4692081928
2112,0.4398827075
2113,0.4007820129
2114,0.4203323364
2115,0.4789833545
2116,0.4105571746
2117,0.3519061565
2118,0.3519061565
2119,0.3030303001
2120,0.2737047910
2121,0.2932551193
2122,0.2737047910
2123,0.2541544437
2124,0.2639296054
2125,0.2834799575
2126,0.2737047910
2127,0.2639296054
2128,0.2541544437
2129,0.2346040964
2130,0.2248289346
2131,0.2346040964
2132,0.2248289346
2133,0.2541544437
2134,0.2639296054
2135,0.3323558330
2136,0.3910068321
2137,0.4007820129
2138,0.4594330310
2139,0.4203323364
2140,0.4301075458
2141,0.5083088874
2142,0.4985337257
2143,0.5376344203
2144,0.5376344203
2145,0.5571847438
2146,0.6353860855
2147,0.6451612472
2148,0.6256109237
2149,0.6744868278
2150,0.7038123130
2151,0.7135874748
2152,0.6647116661
2153,0.6940371513
2154,0.7429130077
2155,0.7624633312
2156,0.6940371513
2157,0.7038123130
2158,0.6256109237
2159,0.6158357620
2160,0.5962854385
2161,0.5669599056
2162,0.5669599056
2163,0.6158357620
2164,0.6744868278
2165,0.6549364089
2166,0.6744868278
2167,0.7135874748
2168,0.7820136547
2169,0.7038123130
2170,0.7331378459
2171,0.7624633312
2172,0.8211143493
2173,0.8308895111
2174,0.8308895111
2175,0.7820136547
2176,0.8211143493
2177,0.8406646728
2178,0.8797654151
2179,0.8993157386
2180,0.8504399299
2181,0.8797654151
2182,0.8602150917
2183,0.8504399299
2184,0.7624633312
2185,0.7038123130
2186,0.6353860855
2187,0.5865102291
2188,0.5865102291
2189,0.5962854385
2190,0.5474095821
2191,0.5474095821
2192,0.4789833545
2193,0.4496578693
2194,0.4398827075
2195,0.4203323364
2196,0.4398827075
2197,0.3910068321
2198,0.3812316703
2199,0.3519061565
2200,0.3128054618
2201,0.2737047910
2202,0.3128054618
2203,0.3128054618
2204,0.3225806236
2205,0.2932551193
2206,0.3128054618
2207,0.3030303001
2208,0.2737047910
2209,0.2737047910
2210,0.2737047910
2211,0.2541544437
2212,0.2443792819
2213,0.2346040964
2214,0.2052785873
2215,0.2052785873
2216,0.2052785873
2217,0.2052785873
2218,0.2052785873
2219,0.2052785873
2220,0.2052785873
2221,0.2052785873
2222,0.2052785873
2223,0.2150537729
2224,0.2052785873
2225,0.1955034160
2226,0.1857282543
2227,0.1857282543
2228,0.1955034160
2229,0.1857282543
2230,0.1759530782
2231,0.1759530782
2232,0.1857282543
2233,0.1955034160
2234,0.2052785873
2235,0.1955034160
2236,0.1857282543
2237,0.1759530782
2238,0.1857282543
2239,0.1857282543
2240,0.1955034160
2241,0.1857282543
2242,0.1955034160
2243,0.1857282543
2244,0.1955034160
2245,0.1955034160
2246,0.1759530782
2247,0.1759530782
2248,0.1661779165
2249,0.1759530782
2250,0.1661779165
2251,0.1564027309
2252,0.1564027309
2253,0.1466275596
2254,0.1661779165
2255,0.1661779165
2256,0.1661779165
2257,0.1661779165
2258,0.1564027309
2259,0.1564027309
2260,0.1564027309
2261,0.1564027309
2262,0.1466275596
2263,0.1661779165
2264,0.1661779165
2265,0.1564027309
2266,0.1759530782
2267,0.1661779165
2268,0.1759530782
2269,0.1661779165
2270,0.1759530782
2271,0.1661779165
2272,0.1759530782
2273,0.1661779165
2274,0.1661779165
2275,0.1564027309
2276,0.1564027309
2277,0.1661779165
2278,0.1857282543
2279,0.1857282543
2280,0.1857282543
2281,0.1857282543
2282,0.1857282543
2283,0.1857282543
2284,0.1759530782
2285,0.1857282543
2286,0.1857282543
2287,0.1955034160
2288,0.2052785873
2289,0.2052785873
2290,0.1857282543
2291,0.1955034160
2292,0.1857282543
2293,0.1955034160
2294,0.1857282543
2295,0.1857282543
2296,0.1759530782
2297,0.1661779165
2298,0.1661779165
2299,0.1759530782
2300,0.1759530782
2301,0.2248289346
2302,0.2150537729
2303,0.2150537729
2304,0.2150537729
2305,0.1955034160
2306,0.1955034160
2307,0.1955034160
2308,0.2052785873
2309,0.1955034160
2310,0.1955034160
2311,0.1857282543
2312,0.1857282543
2313,0.1661779165
2314,0.1564027309
2315,0.1564027309
2316,0.1661779165
2317,0.1661779165
2318,0.1661779165
2319,0.1661779165
2320,0.1466275596
2321,0.1661779165
2322,0.1661779165
2323,0.1857282543
2324,0.1857282543
2325,0.1857282543
2326,0.2052785873
2327,0.2150537729
2328,0.2052785873
2329,0.2052785873
2330,0.2052785873
2331,0.2052785873
2332,0.2150537729
2333,0.2052785873
2334,0.2052785873
2335,0.1857282543
2336,0.1857282543
2337,0.1857282543
2338,0.1857282543
2339,0.1857282543
2340,0.1661779165
2341,0.1564027309
2342,0.1564027309
2343,0.1564027309
2344,0.1661779165
2345,0.1564027309
2346,0.1564027309
2347,0.1466275596
2348,0.1466275596
2349,0.1466275596
2350,0.1466275596
2351,0.1466275596
2352,0.1564027309
2353,0.1661779165
2354,0.1564027309
2355,0.1759530782
2356,0.1857282543
2357,0.1857282543
2358,0.1661779165
2359,0.1564027309
2360,0.1661779165
2361,0.1759530782
2362,0.1759530782
2363,0.1759530782
2364,0.2150537729
2365,0.2052785873
2366,0.1857282543
2367,0.1857282543
2368,0.1759530782
2369,0.1759530782
2370,0.1661779165
2371,0.1661779165
2372,0.1759530782
2373,0.1661779165
2374,0.1857282543
2375,0.1857282543
2376,0.1857282543
2377,0.1759530782
2378,0.1661779165
2379,0.2052785873
2380,0.2052785873
2381,0.2052785873
2382,0.1955034160
2383,0.1857282543
2384,0.1759530782
2385,0.1759530782
2386,0.1857282543
2387,0.1661779165
2388,0.1759530782
2389,0.1857282543
2390,0.1759530782
2391,0.1759530782
2392,0.1857282543
2393,0.1661779165
2394,0.1759530782
2395,0.1564027309
2396,0.1466275596
2397,0.1466275596
2398,0.1564027309
2399,0.1564027309
2400,0.1564027309
2401,0.1564027309
2402,0.1661779165
2403,0.1759530782
2404,0.1857282543
2405,0.1857282543
2406,0.1857282543
2407,0.1857282543
2408,0.1955034160
2409,0.2150537729
2410,0.2346040964
2411,0.2346040964
2412,0.2346040964
2413,0.2248289346
2414,0.2150537729
2415,0.2052785873
2416,0.1857282543
2417,0.1759530782
2418,0.1661779165
2419,0.1661779165
2420,0.1564027309
2421,0.1564027309
2422,0.1466275596
2423,0.1466275596
2424,0.1270772218
2425,0.1270772218
2426,0.1368523955
2427,0.1270772218
2428,0.1368523955
2429,0.1466275596
2430,0.1466275596
2431,0.1466275596
2432,0.1466275596
2433,0.1368523955
2434,0.1368523955
2435,0.1368523955
2436,0.1368523955
2437,0.1466275596
2438,0.1466275596
2439,0.1466275596
2440,0.1466275596
2441,0.1661779165
2442,0.1759530782
2443,0.1857282543
2444,0.1759530782
2445,0.1857282543
2446,0.1759530782
2447,0.1661779165
2448,0.1857282543
2449,0.1955034160
2450,0.2346040964
2451,0.2346040964
2452,0.2541544437
2453,0.2737047910
2454,0.2932551193
2455,0.3030303001
2456,0.3323558330
2457,0.4007820129
2458,0.4007820129
2459,0.4105571746
2460,0.3812316703
2461,0.3812316703
2462,0.3910068321
2463,0.4301075458
2464,0.4496578693
2465,0.5180840492
2466,0.5180840492
2467,0.4594330310
2468,0.4496578693
2469,0.4496578693
2470,0.4985337257
2471,0.5767350673
2472,0.6353860855
2473,0.6060606002
2474,0.6158357620
2475,0.5865102291
2476,0.5669599056
2477,0.6842619895
2478,0.6744868278
2479,0.6744868278
2480,0.7526881694
2481,0.7331378459
2482,0.8406646728
2483,0.9677418708
2484,1.0459432601
2485,1.0557184219
2486,1.0361680984
2487,1.1143695116
2488,1.1143695116
2489,1.0166177749
2490,0.9970674514
2491,0.9775171279
2492,0.9579667091
2493,1.0166177749
2494,1.0948191833
2495,1.0752688646
2496,1.0654937028
2497,0.9872922897
2498,1.1045943498
2499,1.1241446733
2500,1.1436949968
2501,1.1143695116
2502,1.2023460865
2503,1.1534701585
2504,1.3196481466
2505,1.3782991170
2506,1.4467253684
2507,1.4662756919
2508,1.5249266624
2509,1.4858260154
2510,1.5542521476
2511,1.4271749496
2512,1.3880742835
2513,1.4076246261
2514,1.4076246261
2515,1.3196481466
2516,1.3782991170
2517,1.4173997879
2518,1.4858260154
2519,1.5249266624
2520,1.6520038604
2521,1.5542521476
2522,1.6617790222
2523,1.5640273094
2524,1.3880742835
2525,1.6520038604
2526,1.5640273094
2527,1.4271749496
2528,1.4173997879
2529,1.7790811061
2530,1.7497556209
2531,1.5738025665
2532,1.5053763389
2533,1.5444769859
2534,1.4565005302
2535,1.4076246261
2536,1.2316715717
2537,1.0850440216
2538,1.0361680984
2539,0.9188660621
2540,0.7722384929
2541,0.6647116661
2542,0.7135874748
2543,0.7135874748
2544,0.7233626842
2545,0.6744868278
2546,0.6744868278
2547,0.6744868278
2548,0.5865102291
2549,0.5083088874
2550,0.4789833545
2551,0.4692081928
2552,0.3910068321
2553,0.3323558330
2554,0.3519061565
2555,0.3225806236
2556,0.2932551193
2557,0.2639296054
2558,0.2541544437
2559,0.2248289346
2560,0.2150537729
2561,0.2052785873
2562,0.2346040964
2563,0.2052785873
2564,0.2052785873
2565,0.2346040964
2566,0.2541544437
2567,0.3030303001
2568,0.3030303001
2569,0.3519061565
2570,0.3323558330
2571,0.4007820129
2572,0.4496578693
2573,0.5474095821
2574,0.6842619895
2575,0.7331378459
2576,0.7526881694
2577,0.8113391876
2578,0.8602150917
2579,0.9579667091
2580,0.9579667091
2581,0.9579667091
2582,1.0263929367
2583,1.0263929367
2584,0.9384163856
2585,0.9970674514
2586,0.9677418708
2587,0.9090909004
2588,0.9090909004
2589,0.9677418708
2590,1.0459432601
2591,0.9677418708
2592,0.9579667091
2593,0.9970674514
2594,0.9481915473
2595,0.9775171279
2596,1.0263929367
2597,0.9090909004
2598,0.8113391876
2599,0.8113391876
2600,0.8504399299
2601,0.8113391876
2602,0.8895405769
2603,0.8602150917
2604,0.8699902534
2605,0.8211143493
2606,0.8211143493
2607,0.8504399299
2608,0.8504399299
2609,0.8113391876
2610,0.7722384929
2611,0.7820136547
2612,0.7820136547
2613,0.7526881694
2614,0.7624633312
2615,0.7233626842
2616,0.7233626842
2617,0.6647116661
2618,0.6353860855
2619,0.6060606002
2620,0.5767350673
2621,0.6451612472
2622,0.6158357620
2623,0.5865102291
2624,0.6647116661
2625,0.6842619895
2626,0.6647116661
2627,0.6451612472
2628,0.5962854385
2629,0.5767350673
2630,0.5571847438
2631,0.5180840492
2632,0.5474095821
2633,0.5083088874
2634,0.4887585639
2635,0.4789833545
2636,0.4887585639
2637,0.4496578693
2638,0.4105571746
2639,0.3910068321
2640,0.3714565038
2641,0.3421309947
2642,0.3030303001
2643,0.3519061565
2644,0.3421309947
2645,0.3128054618
2646,0.3225806236
2647,0.3421309947
2648,0.2932551193
2649,0.2932551193
2650,0.2737047910
2651,0.2541544437
2652,0.2346040964
2653,0.2150537729
2654,0.2346040964
2655,0.2248289346
2656,0.2346040964
2657,0.2541544437
2658,0.2639296054
2659,0.2443792819
2660,0.2248289346
2661,0.2052785873
2662,0.1955034160
2663,0.1955034160
2664,0.1955034160
2665,0.1857282543
2666,0.1955034160
2667,0.1955034160
2668,0.2052785873
2669,0.2052785873
2670,0.1955034160
2671,0.1955034160
2672,0.1857282543
2673,0.1759530782
2674,0.1661779165
2675,0.1759530782
2676,0.1857282543
2677,0.1759530782
2678,0.1564027309
2679,0.1564027309
2680,0.1759530782
2681,0.1759530782
2682,0.1759530782
2683,0.1759530782
2684,0.1759530782
2685,0.1759530782
2686,0.1857282543
2687,0.1857282543
2688,0.1857282543
2689,0.1759530782
2690,0.1857282543
2691,0.1955034160
2692,0.1759530782
2693,0.1661779165
2694,0.1661779165
2695,0.1857282543
2696,0.1955034160
2697,0.1857282543
2698,0.1759530782
2699,0.1857282543
2700,0.1759530782
2701,0.1759530782
2702,0.1759530782
2703,0.1857282543
2704,0.2150537729
2705,0.2150537729
2706,0.2052785873
2707,0.2052785873
2708,0.1955034160
2709,0.1857282543
2710,0.2052785873
2711,0.2150537729
2712,0.2150537729
2713,0.2150537729
2714,0.2248289346
2715,0.2541544437
2716,0.2443792819
2717,0.2443792819
2718,0.2541544437
2719,0.2834799575
2720,0.2639296054
2721,0.2639296054
2722,0.2443792819
2723,0.2346040964
2724,0.2248289346
2725,0.2150537729
2726,0.2248289346
2727,0.2541544437
2728,0.2346040964
2729,0.2248289346
2730,0.2248289346
2731,0.2150537729
2732,0.2150537729
2733,0.1857282543
2734,0.1857282543
2735,0.1857282543
2736,0.1759530782
2737,0.1857282543
2738,0.1955034160
2739,0.1955034160
2740,0.1857282543
2741,0.1661779165
2742,0.1759530782
2743,0.1759530782
2744,0.1661779165
2745,0.1759530782
2746,0.1661779165
2747,0.1564027309
2748,0.1466275596
2749,0.1368523955
2750,0.1564027309
2751,0.1661779165
2752,0.1564027309
2753,0.1661779165
2754,0.1857282543
2755,0.1857282543
2756,0.1857282543
2757,0.1857282543
2758,0.1759530782
2759,0.1759530782
2760,0.1759530782
2761,0.1955034160
2762,0.1857282543
2763,0.1857282543
2764,0.1857282543
2765,0.1955034160
2766,0.2052785873
2767,0.1857282543
2768,0.1759530782
2769,0.1661779165
2770,0.1857282543
2771,0.1759530782
2772,0.1857282543
2773,0.1857282543
2774,0.1857282543
2775,0.1857282543
2776,0.1759530782
2777,0.1759530782
2778,0.1759530782
2779,0.1661779165
2780,0.1661779165
2781,0.1661779165
2782,0.1564027309
2783,0.1564027309
2784,0.1759530782
2785,0.1955034160
2786,0.1955034160
2787,0.1955034160
2788,0.1955034160
2789,0.1955034160
2790,0.1759530782
2791,0.1661779165
2792,0.1661779165
2793,0.1759530782
2794,0.1661779165
2795,0.1759530782
2796,0.1661779165
2797,0.1857282543
2798,0.1759530782
2799,0.1857282543
2800,0.1857282543
2801,0.1955034160
2802,0.1857282543
2803,0.1857282543
2804,0.1759530782
2805,0.1857282543
2806,0.1759530782
2807,0.1759530782
2808,0.1759530782
2809,0.1857282543
2810,0.1955034160
2811,0.1661779165
2812,0.1857282543
2813,0.1661779165
2814,0.1661779165
2815,0.1661779165
2816,0.1564027309
2817,0.1759530782
2818,0.1759530782
2819,0.1857282543
2820,0.1955034160
2821,0.2150537729
2822,0.2150537729
2823,0.2150537729
2824,0.1955034160
2825,0.1857282543
2826,0.1759530782
2827,0.1661779165
2828,0.1661779165
2829,0.1564027309
2830,0.1466275596
2831,0.1466275596
2832,0.1368523955
2833,0.1368523955
2834,0.1564027309
2835,0.1466275596
2836,0.1466275596
2837,0.1466275596
2838,0.1564027309
2839,0.1759530782
2840,0.1759530782
2841,0.1857282543
2842,0.1857282543
2843,0.2052785873
2844,0.2150537729
2845,0.2150537729
2846,0.2052785873
2847,0.2052785873
2848,0.2052785873
2849,0.2052785873
2850,0.2150537729
2851,0.2150537729
2852,0.2052785873
2853,0.1955034160
2854,0.1857282543
2855,0.1759530782
2856,0.1564027309
2857,0.1564027309
2858,0.1466275596
2859,0.1466275596
2860,0.1661779165
2861,0.1564027309
2862,0.1564027309
2863,0.1466275596
2864,0.1466275596
2865,0.1368523955
2866,0.1466275596
2867,0.1564027309
2868,0.1564027309
2869,0.1661779165
2870,0.1466275596
2871,0.1466275596
2872,0.1368523955
2873,0.1466275596
2874,0.1466275596
2875,0.1368523955
2876,0.1368523955
2877,0.1368523955
2878,0.1368523955
2879,0.1466275596
2880,0.1564027309
2881,0.1564027309
2882,0.1661779165
2883,0.1759530782
2884,0.1564027309
2885,0.1466275596
2886,0.1466275596
2887,0.1564027309
2888,0.1466275596
2889,0.1564027309
2890,0.1661779165
2891,0.1857282543
2892,0.2052785873
2893,0.2346040964
2894,0.2248289346
2895,0.2248289346
2896,0.2443792819
2897,0.2737047910
2898,0.2932551193
2899,0.3225806236
2900,0.3421309947
2901,0.3421309947
2902,0.3323558330
2903,0.3323558330
2904,0.3421309947
2905,0.3910068321
2906,0.4398827075
2907,0.4496578693
2908,0.4496578693
2909,0.4496578693
2910,0.4985337257
2911,0.5083088874
2912,0.5474095821
2913,0.5865102291
2914,0.6451612472
2915,0.5865102291
2916,0.5083088874
2917,0.6353860855
2918,0.7526881694
2919,0.7038123130
2920,0.7820136547
2921,0.7917888641
2922,0.8211143493
2923,0.9090909004
2924,0.9286412239
2925,0.8797654151
2926,0.7722384929
2927,0.7429130077
2928,0.7624633312
2929,0.8308895111
2930,0.8993157386
2931,0.9579667091
2932,0.9872922897
2933,1.0459432601
2934,1.0459432601
2935,1.0361680984
2936,1.0166177749
2937,1.0654937028
2938,1.0557184219
2939,1.1045943498
2940,1.1925709247
2941,1.2414467334
2942,1.2707722187
2943,1.2414467334
2944,1.4173997879
2945,1.3098728656
2946,1.3098728656
2947,1.2805473804
2948,1.2609970569
2949,1.2609970569
2950,1.4173997879
2951,1.3098728656
2952,1.3196481466
2953,1.2805473804
2954,1.2609970569
2955,1.4076246261
2956,1.3587487936
2957,1.3000977039
2958,1.3587487936
2959,1.3782991170
2960,1.3978494453
2961,1.5347018241
2962,1.6422286987
2963,1.6129032135
2964,1.5249266624
2965,1.4956011772
2966,1.3782991170
2967,1.3098728656
2968,1.3587487936
2969,1.4565005302
2970,1.5151515007
2971,1.4565005302
2972,1.4760508537
2973,1.4760508537
2974,1.3782991170
2975,1.2512218952
2976,1.1339198350
2977,1.0263929367
2978,0.9286412239
2979,0.8699902534
2980,0.8504399299
2981,0.8015640258
2982,0.7624633312
2983,0.7331378459
2984,0.7233626842
2985,0.6451612472
2986,0.5767350673
2987,0.6060606002
2988,0.5669599056
2989,0.5278592109
2990,0.4692081928
2991,0.4398827075
2992,0.3910068321
2993,0.3616813421
2994,0.3030303001
2995,0.2639296054
2996,0.2541544437
2997,0.2443792819
2998,0.2248289346
2999,0.2248289346
3000,0.2248289346
3001,1.3685239553
3002,1.1534701585
3003,1.0068426132
3004,0.8406646728
3005,0.7331378459
3006,0.6451612472
3007,0.5474095821
3008,0.5180840492
3009,0.4301075458
3010,0.4007820129
3011,0.4301075458
3012,0.4203323364
3013,0.4398827075
3014,0.4007820129
3015,0.4007820129
3016,0.3812316703
3017,0.3421309947
3018,0.3616813421
3019,0.3519061565
3020,0.3519061565
3021,0.3421309947
3022,0.3128054618
3023,0.2932551193
3024,0.2834799575
3025,0.3030303001
3026,0.3519061565
3027,0.4398827075
3028,0.4203323364
3029,0.4105571746
3030,0.4398827075
3031,0.4105571746
3032,0.4203323364
3033,0.4105571746
3034,0.3714565038
3035,0.3714565038
3036,0.3910068321
3037,0.3616813421
3038,0.3714565038
3039,0.3812316703
3040,0.4007820129
3041,0.4007820129
3042,0.3812316703
3043,0.3812316703
3044,0.3910068321
3045,0.3812316703
3046,0.3812316703
3047,0.3714565038
3048,0.3421309947
3049,0.3225806236
3050,0.3225806236
3051,0.3323558330
3052,0.3128054618
3053,0.2932551193
3054,0.2834799575
3055,0.2932551193
3056,0.3030303001
3057,0.3421309947
3058,0.3030303001
3059,0.3030303001
3060,0.3030303001
3061,0.2737047910
3062,0.2541544437
3063,0.2443792819
3064,0.2834799575
3065,0.2932551193
3066,0.2834799575
3067,0.3030303001
3068,0.2932551193
3069,0.2737047910
3070,0.2443792819
3071,0.2346040964
3072,0.2737047910
3073,0.2834799575
3074,0.2737047910
3075,0.2834799575
3076,0.2737047910
3077,0.2639296054
3078,0.2443792819
3079,0.2639296054
3080,0.3128054618
3081,0.3128054618
3082,0.3225806236
3083,0.3030303001
3084,0.3128054618
3085,0.3225806236
3086,0.3128054618
3087,0.3323558330
3088,0.3421309947
3089,0.3128054618
3090,0.3030303001
3091,0.2932551193
3092,0.3225806236
3093,0.3128054618
3094,0.3323558330
3095,0.3421309947
3096,0.3323558330
3097,0.3519061565
3098,0.3910068321
3099,0.4007820129
3100,0.4007820129
3101,0.4301075458
3102,0.4398827075
3103,0.3812316703
3104,0.4203323364
3105,0.4105571746
3106,0.4692081928
3107,0.4692081928
3108,0.4887585639
3109,0.5180840492
3110,0.5180840492
3111,0.5669599056
3112,0.5474095821
3113,0.4985337257
3114,0.5669599056
3115,0.5669599056
3116,0.5376344203
3117,0.5571847438
3118,0.6353860855
3119,0.7233626842
3120,0.7233626842
3121,0.6940371513
3122,0.6549364089
3123,0.7429130077
3124,0.7526881694
3125,0.8797654151
3126,0.8602150917
3127,1.0361680984
3128,1.1241446733
3129,1.2316715717
3130,1.2023460865
3131,1.3294233083
3132,1.4369501113
3133,1.3978494453
3134,1.3489736318
3135,1.2218964099
3136,1.1241446733
3137,1.2316715717
3138,1.3587487936
3139,1.3880742835
3140,1.3587487936
3141,1.2316715717
3142,1.2609970569
3143,1.3489736318
3144,1.2805473804
3145,1.2316715717
3146,1.1730204820
3147,1.1436949968
3148,1.0948191833
3149,1.1436949968
3150,1.1925709247
3151,1.2121212482
3152,1.0752688646
3153,1.1339198350
3154,1.1045943498
3155,1.0557184219
3156,1.0361680984
3157,1.0166177749
3158,1.1534701585
3159,1.0850440216
3160,1.0557184219
3161,1.0068426132
3162,1.0459432601
3163,1.0948191833
3164,1.2316715717
3165,1.1925709247
3166,1.1045943498
3167,1.1534701585
3168,1.3978494453
3169,1.3587487936
3170,1.2218964099
3171,1.2512218952
3172,1.0654937028
3173,1.2707722187
3174,1.1632453203
3175,1.1632453203
3176,1.2414467334
3177,1.2512218952
3178,1.1534701585
3179,1.3587487936
3180,1.2707722187
3181,1.3294233083
3182,1.2316715717
3183,1.2121212482
3184,1.5053763389
3185,1.4662756919
3186,1.3782991170
3187,1.2805473804
3188,1.4271749496
3189,1.5249266624
3190,1.4467253684
3191,1.5053763389
3192,1.4760508537
3193,1.3978494453
3194,1.3489736318
3195,1.2805473804
3196,1.3098728656
3197,1.4858260154
3198,1.3489736318
3199,1.3294233083
3200,1.3880742835
3201,1.2903225421
3202,1.1925709247
3203,1.0948191833
3204,0.9384163856
3205,0.8406646728
3206,0.7917888641
3207,0.7135874748
3208,0.5865102291
3209,0.5571847438
3210,0.5180840492
3211,0.4789833545
3212,0.4105571746
3213,0.3616813421
3214,0.3910068321
3215,0.3910068321
3216,0.4007820129
3217,0.4203323364
3218,0.4301075458
3219,0.4398827075
3220,0.3910068321
3221,0.3225806236
3222,0.2737047910
3223,0.2737047910
3224,0.2639296054
3225,0.2834799575
3226,0.2737047910
3227,0.2346040964
3228,0.2052785873
3229,0.1955034160
3230,0.2052785873
3231,0.2541544437
3232,0.2737047910
3233,0.3030303001
3234,0.3225806236
3235,0.2932551193
3236,0.2737047910
3237,0.2541544437
3238,0.2443792819
3239,0.2541544437
3240,0.2541544437
3241,0.2443792819
3242,0.2346040964
3243,0.2248289346
3244,0.2443792819
3245,0.2346040964
3246,0.2150537729
3247,0.2346040964
3248,0.2443792819
3249,0.2639296054
3250,0.2834799575
3251,0.2932551193
3252,0.3030303001
3253,0.3421309947
3254,0.3616813421
3255,0.3616813421
3256,0.4594330310
3257,0.4594330310
3258,0.4496578693
3259,0.5180840492
3260,0.6647116661
3261,0.8113391876
3262,0.7820136547
3263,0.6940371513
3264,0.8211143493
3265,0.8211143493
3266,0.8308895111
3267,0.8015640258
3268,0.7429130077
3269,0.8015640258
3270,0.7722384929
3271,0.8602150917
3272,0.7917888641
3273,0.7331378459
3274,0.7429130077
3275,0.6940371513
3276,0.7233626842
3277,0.9090909004
3278,0.8699902534
3279,0.8113391876
3280,0.7331378459
3281,0.7429130077
3282,0.7820136547
3283,0.7820136547
3284,0.8895405769
3285,0.8504399299
3286,0.8602150917
3287,0.8015640258
3288,0.8308895111
3289,0.8504399299
3290,0.8113391876
3291,0.7624633312
3292,0.7331378459
3293,0.7917888641
3294,0.7038123130
3295,0.7722384929
3296,0.7135874748
3297,0.6353860855
3298,0.6256109237
3299,0.6158357620
3300,0.5962854385
3301,0.5865102291
3302,0.5376344203
3303,0.5669599056
3304,0.6256109237
3305,0.5962854385
3306,0.5278592109
3307,0.4985337257
3308,0.4789833545
3309,0.4496578693
3310,0.4594330310
3311,0.4496578693
3312,0.4105571746
3313,0.3812316703
3314,0.3910068321
3315,0.3714565038
3316,0.3421309947
3317,0.3519061565
3318,0.4594330310
3319,0.5474095821
3320,0.5083088874
3321,0.4496578693
3322,0.4007820129
3323,0.3616813421
3324,0.3714565038
3325,0.3421309947
3326,0.3323558330
3327,0.3323558330
3328,0.3225806236
3329,0.3812316703
3330,0.3812316703
3331,0.3910068321
3332,0.4105571746
3333,0.4105571746
3334,0.3812316703
3335,0.3519061565
3336,0.3225806236
3337,0.3323558330
3338,0.2932551193
3339,0.2932551193
3340,0.3323558330
3341,0.3323558330
3342,0.3225806236
3343,0.3030303001
3344,0.2737047910
3345,0.2639296054
3346,0.2443792819
3347,0.2639296054
3348,0.2932551193
3349,0.3225806236
3350,0.2932551193
3351,0.3225806236
3352,0.3030303001
3353,0.3030303001
3354,0.3225806236
3355,0.2932551193
3356,0.2932551193
3357,0.2639296054
3358,0.2737047910
3359,0.2737047910
3360,0.2541544437
3361,0.2737047910
3362,0.2834799575
3363,0.2834799575
3364,0.3030303001
3365,0.3421309947
3366,0.3421309947
3367,0.3225806236
3368,0.3225806236
3369,0.3323558330
3370,0.4007820129
3371,0.4398827075
3372,0.3910068321
3373,0.4105571746
3374,0.4203323364
3375,0.3910068321
3376,0.4398827075
3377,0.4496578693
3378,0.4789833545
3379,0.4692081928
3380,0.4887585639
3381,0.5474095821
3382,0.5571847438
3383,0.5180840492
3384,0.4692081928
3385,0.4789833545
3386,0.4496578693
3387,0.4496578693
3388,0.4594330310
3389,0.4301075458
3390,0.4301075458
3391,0.4594330310
3392,0.4789833545
3393,0.4594330310
3394,0.5376344203
3395,0.5474095821
3396,0.5180840492
3397,0.4985337257
3398,0.4985337257
3399,0.4692081928
3400,0.4789833545
3401,0.4692081928
3402,0.4692081928
3403,0.4301075458
3404,0.4692081928
3405,0.4789833545
3406,0.4398827075
3407,0.4496578693
3408,0.4594330310
3409,0.4692081928
3410,0.5669599056
3411,0.5376344203
3412,0.5083088874
3413,0.5474095821
3414,0.6060606002
3415,0.6060606002
3416,0.5962854385
3417,0.6256109237
3418,0.6060606002
3419,0.5474095821
3420,0.5376344203
3421,0.5376344203
3422,0.4985337257
3423,0.4789833545
3424,0.4594330310
3425,0.4594330310
3426,0.4105571746
3427,0.4301075458
3428,0.4203323364
3429,0.3812316703
3430,0.3714565038
3431,0.4301075458
3432,0.4007820129
3433,0.4203323364
3434,0.3812316703
3435,0.4105571746
3436,0.4594330310
3437,0.4301075458
3438,0.4007820129
3439,0.3910068321
3440,0.4007820129
3441,0.3910068321
3442,0.4203323364
3443,0.3910068321
3444,0.3812316703
3445,0.4203323364
3446,0.4105571746
3447,0.3616813421
3448,0.3812316703
3449,0.3910068321
3450,0.4496578693
3451,0.4594330310
3452,0.4398827075
3453,0.4007820129
3454,0.4203323364
3455,0.3910068321
3456,0.3910068321
3457,0.3910068321
3458,0.3714565038
3459,0.3616813421
3460,0.3519061565
3461,0.3616813421
3462,0.4105571746
3463,0.3812316703
3464,0.3910068321
3465,0.4203323364
3466,0.3910068321
3467,0.3910068321
3468,0.3714565038
3469,0.3519061565
3470,0.3519061565
3471,0.3910068321
3472,0.3812316703
3473,0.3616813421
3474,0.3714565038
3475,0.3812316703
3476,0.3519061565
3477,0.3421309947
3478,0.3225806236
3479,0.3421309947
3480,0.3519061565
3481,0.3519061565
3482,0.3714565038
3483,0.3616813421
3484,0.3714565038
3485,0.3421309947
3486,0.3616813421
3487,0.3714565038
3488,0.3519061565
3489,0.3616813421
3490,0.3519061565
3491,0.3323558330
3492,0.3421309947
3493,0.3421309947
3494,0.3323558330
3495,0.2932551193
3496,0.2834799575
3497,0.3030303001
3498,0.3128054618
3499,0.3030303001
3500,0.3519061565
3501,0.3519061565
3502,0.3616813421
3503,0.3616813421
3504,0.3812316703
3505,0.3714565038
3506,0.3519061565
3507,0.3421309947
3508,0.3225806236
3509,0.3421309947
3510,0.3421309947
3511,0.3812316703
3512,0.3910068321
3513,0.3714565038
3514,0.3714565038
3515,0.3714565038
3516,0.3421309947
3517,0.3323558330
3518,0.3030303001
3519,0.3030303001
3520,0.3323558330
3521,0.2932551193
3522,0.2932551193
3523,0.2737047910
3524,0.2834799575
3525,0.3421309947
3526,0.3812316703
3527,0.3910068321
3528,0.4203323364
3529,0.4789833545
3530,0.4594330310
3531,0.4203323364
3532,0.4007820129
3533,0.3714565038
3534,0.4105571746
3535,0.4203323364
3536,0.4007820129
3537,0.4985337257
3538,0.5767350673
3539,0.5669599056
3540,0.5865102291
3541,0.6158357620
3542,0.5767350673
3543,0.5962854385
3544,0.7038123130
3545,0.7722384929
3546,0.7038123130
3547,0.6842619895
3548,0.6549364089
3549,0.6158357620
3550,0.6256109237
3551,0.6353860855
3552,0.7331378459
3553,0.6744868278
3554,0.6940371513
3555,0.7135874748
3556,0.7331378459
3557,0.8993157386
3558,0.8602150917
3559,0.9090909004
3560,0.9970674514
3561,0.9286412239
3562,0.9188660621
3563,0.9775171279
3564,0.9970674514
3565,0.9481915473
3566,1.0068426132
3567,0.9579667091
3568,1.0166177749
3569,0.9677418708
3570,0.9286412239
3571,0.8797654151
3572,0.9481915473
3573,0.9677418708
3574,0.8895405769
3575,0.8113391876
3576,0.8602150917
3577,0.8699902534
3578,0.9579667091
3579,1.2023460865
3580,1.1143695116
3581,1.1045943498
3582,1.0068426132
3583,0.9384163856
3584,1.0459432601
3585,1.0263929367
3586,0.9970674514
3587,1.0557184219
3588,0.9970674514
3589,1.1339198350
3590,1.1339198350
3591,1.2023460865
3592,1.1045943498
3593,0.9970674514
3594,1.0459432601
3595,1.0557184219
3596,1.0166177749
3597,1.0361680984
3598,0.9384163856
3599,1.0850440216
3600,1.0557184219
3601,1.0068426132
3602,0.9286412239
3603,0.8602150917
3604,1.0459432601
3605,1.1143695116
3606,1.0948191833
3607,1.1241446733
3608,1.0068426132
3609,1.0068426132
3610,1.0557184219
3611,1.1339198350
3612,1.1339198350
3613,1.0850440216
3614,1.1730204820
3615,1.1241446733
3616,1.2023460865
3617,1.3391984701
3618,1.4565005302
3619,1.4760508537
3620,1.5151515007
3621,1.3489736318
3622,1.2512218952
3623,1.1730204820
3624,1.3196481466
3625,1.2316715717
3626,1.2512218952
3627,1.2609970569
3628,1.1436949968
3629,1.0459432601
3630,0.9286412239
3631,1.0557184219
3632,1.0752688646
3633,1.0557184219
3634,1.1339198350
3635,1.0948191833
3636,1.3098728656
3637,1.4760508537
3638,1.5835777282
3639,1.3782991170
3640,1.3587487936
3641,1.3489736318
3642,1.3489736318
3643,1.3294233083
3644,1.2512218952
3645,1.1925709247
3646,1.1143695116
3647,0.9970674514
3648,0.8602150917
3649,0.8113391876
3650,0.7429130077
3651,0.6451612472
3652,0.5571847438
3653,0.4594330310
3654,0.4105571746
3655,0.3519061565
3656,0.3421309947
3657,0.3225806236
3658,0.2932551193
3659,0.2639296054
3660,0.2248289346
3661,0.2248289346
3662,0.2052785873
3663,0.1857282543
3664,0.1955034160
3665,0.2150537729
3666,0.2150537729
3667,0.2052785873
3668,0.2248289346
3669,0.2737047910
3670,0.3128054618
3671,0.2834799575
3672,0.2834799575
3673,0.2834799575
3674,0.2541544437
3675,0.2541544437
3676,0.3030303001
3677,0.3519061565
3678,0.4007820129
3679,0.4007820129
3680,0.3714565038
3681,0.4789833545
3682,0.5865102291
3683,0.7135874748
3684,0.8113391876
3685,0.8406646728
3686,0.7135874748
3687,0.7331378459
3688,0.6940371513
3689,0.6549364089
3690,0.6158357620
3691,0.6158357620
3692,0.5962854385
3693,0.6647116661
3694,0.6842619895
3695,0.6451612472
3696,0.7526881694
3697,0.9481915473
3698,1.8279570579
3699,1.7106549739
3700,1.5053763389
3701,1.6324535369
3702,1.6520038604
3703,1.7693059444
3704,1.7008798122
3705,1.6031280517
3706,1.4271749496
3707,1.3294233083
3708,1.2414467334
3709,1.1534701585
3710,1.1045943498
3711,1.1339198350
3712,1.0361680984
3713,0.9677418708
3714,1.0361680984
3715,0.9775171279
3716,0.9188660621
3717,0.8602150917
3718,0.8699902534
3719,0.7917888641
3720,0.7135874748
3721,0.6744868278
3722,0.6647116661
3723,0.6940371513
3724,0.6549364089
3725,0.7135874748
3726,0.7038123130
3727,0.7331378459
3728,0.7820136547
3729,0.7038123130
3730,0.6451612472
3731,0.6842619895
3732,0.6744868278
3733,0.6647116661
3734,0.6451612472
3735,0.8211143493
3736,0.7429130077
3737,0.6353860855
3738,0.5865102291
3739,0.5767350673
3740,0.5474095821
3741,0.5278592109
3742,0.5180840492
3743,0.5180840492
3744,0.5376344203
3745,0.5083088874
3746,0.5278592109
3747,0.5767350673
3748,0.5962854385
3749,0.6353860855
3750,0.5962854385
3751,0.5278592109
3752,0.5083088874
3753,0.5180840492
3754,0.4887585639
3755,0.4594330310
3756,0.4496578693
3757,0.4398827075
3758,0.4203323364
3759,0.3910068321
3760,0.3714565038
3761,0.4105571746
3762,0.4203323364
3763,0.3714565038
3764,0.3812316703
3765,0.4301075458
3766,0.4203323364
3767,0.4007820129
3768,0.3714565038
3769,0.3616813421
3770,0.4398827075
3771,0.3910068321
3772,0.4203323364
3773,0.4105571746
3774,0.3812316703
3775,0.4594330310
3776,0.5376344203
3777,0.5571847438
3778,0.4887585639
3779,0.4594330310
3780,0.4301075458
3781,0.3910068321
3782,0.4007820129
3783,0.3714565038
3784,0.3421309947
3785,0.3812316703
3786,0.3714565038
3787,0.3519061565
3788,0.3519061565
3789,0.3812316703
3790,0.3323558330
3791,0.3519061565
3792,0.3225806236
3793,0.3030303001
3794,0.3030303001
3795,0.2932551193
3796,0.2737047910
3797,0.3128054618
3798,0.3714565038
3799,0.4496578693
3800,0.4789833545
3801,0.4398827075
3802,0.3812316703
3803,0.3910068321
3804,0.3910068321
3805,0.3616813421
3806,0.3225806236
3807,0.3225806236
3808,0.2834799575
3809,0.2443792819
3810,0.2541544437
3811,0.2443792819
3812,0.2443792819
3813,0.2541544437
3814,0.2639296054
3815,0.2639296054
3816,0.2834799575
3817,0.3323558330
3818,0.3421309947
3819,0.3323558330
3820,0.3323558330
3821,0.3030303001
3822,0.2932551193
3823,0.2932551193
3824,0.2834799575
3825,0.2737047910
3826,0.2541544437
3827,0.2541544437
3828,0.2346040964
3829,0.2248289346
3830,0.2248289346
3831,0.2052785873
3832,0.2150537729
3833,0.2346040964
3834,0.2541544437
3835,0.2443792819
3836,0.2541544437
3837,0.2541544437
3838,0.2737047910
3839,0.2639296054
3840,0.2639296054
3841,0.2443792819
3842,0.2541544437
3843,0.2443792819
3844,0.2150537729
3845,0.2346040964
3846,0.2248289346
3847,0.2248289346
3848,0.2150537729
3849,0.2248289346
3850,0.2443792819
3851,0.2248289346
3852,0.2150537729
3853,0.2248289346
3854,0.2150537729
3855,0.2150537729
3856,0.2052785873
3857,0.2248289346
3858,0.2346040964
3859,0.2248289346
3860,0.2443792819
3861,0.2639296054
3862,0.2737047910
3863,0.2639296054
3864,0.2541544437
3865,0.2541544437
3866,0.2443792819
3867,0.2248289346
3868,0.2248289346
3869,0.2248289346
3870,0.2150537729
3871,0.2052785873
3872,0.1955034160
3873,0.1955034160
3874,0.1857282543
3875,0.1955034160
3876,0.1955034160
3877,0.1759530782
3878,0.1955034160
3879,0.2150537729
3880,0.2150537729
3881,0.2150537729
3882,0.2150537729
3883,0.2443792819
3884,0.2346040964
3885,0.2248289346
3886,0.2346040964
3887,0.2541544437
3888,0.2541544437
3889,0.2737047910
3890,0.2932551193
3891,0.3030303001
3892,0.3030303001
3893,0.3030303001
3894,0.3225806236
3895,0.3323558330
3896,0.3128054618
3897,0.3225806236
3898,0.3323558330
3899,0.3616813421
3900,0.3616813421
3901,0.3714565038
3902,0.3714565038
3903,0.3714565038
3904,0.3812316703
3905,0.3616813421
3906,0.3323558330
3907,0.3225806236
3908,0.3421309947
3909,0.3421309947
3910,0.3323558330
3911,0.3030303001
3912,0.3225806236
3913,0.3030303001
3914,0.3421309947
3915,0.3323558330
3916,0.3714565038
3917,0.3616813421
3918,0.3714565038
3919,0.3323558330
3920,0.3030303001
3921,0.3030303001
3922,0.3030303001
3923,0.3323558330
3924,0.2932551193
3925,0.2834799575
3926,0.3128054618
3927,0.2932551193
3928,0.2932551193
3929,0.2737047910
3930,0.3030303001
3931,0.3030303001
3932,0.3030303001
3933,0.3323558330
3934,0.3323558330
3935,0.3714565038
3936,0.3323558330
3937,0.3225806236
3938,0.3030303001
3939,0.2932551193
3940,0.3030303001
3941,0.3030303001
3942,0.2932551193
3943,0.2932551193
3944,0.2834799575
3945,0.3128054618
3946,0.3616813421
3947,0.3714565038
3948,0.4007820129
3949,0.3910068321
3950,0.4007820129
3951,0.3812316703
3952,0.4301075458
3953,0.4105571746
3954,0.4203323364
3955,0.3910068321
3956,0.3910068321
3957,0.4007820129
3958,0.4301075458
3959,0.4789833545
3960,0.5083088874
3961,0.4887585639
3962,0.4301075458
3963,0.4496578693
3964,0.4398827075
3965,0.4105571746
3966,0.3910068321
3967,0.3812316703
3968,0.4496578693
3969,0.4301075458
3970,0.4692081928
3971,0.4692081928
3972,0.4594330310
3973,0.5376344203
3974,0.5962854385
3975,0.6549364089
3976,0.6353860855
3977,0.6158357620
3978,0.6744868278
3979,0.6940371513
3980,0.6842619895
3981,0.7038123130
3982,0.7038123130
3983,0.6451612472
3984,0.7233626842
3985,0.8113391876
3986,0.8211143493
3987,0.8308895111
3988,0.8993157386
3989,0.9090909004
3990,0.8211143493
3991,0.8211143493
3992,0.9286412239
3993,0.8406646728
3994,0.8993157386
3995,0.9384163856
3996,0.9775171279
3997,0.9872922897
3998,0.9384163856
3999,0.9677418708
0,0.9872922897
1,0.9286412239
2,0.7722384929
3,0.6451612472
4,0.5571847438
5,0.4789833545
6,0.4105571746
7,0.3616813421
8,0.3128054618
9,0.2737047910
10,0.2346040964
11,0.2248289346
12,0.1955034160
13,0.1661779165
14,0.1661779165
15,0.1564027309
16,0.1564027309
17,0.1368523955
18,0.1270772218
19,0.1173020482
20,0.1075268864
21,0.0977517032
22,0.0977517032
23,0.0879765415
24,0.0782013654
25,0.0782013654
26,0.0977517032
27,0.0977517032
28,0.0879765415
29,0.0977517032
30,0.0879765415
31,0.1075268864
32,0.0977517032
33,0.0977517032
34,0.1075268864
35,0.1075268864
36,0.1075268864
37,0.1075268864
38,0.1075268864
39,0.1075268864
40,0.1075268864
41,0.1075268864
42,0.1075268864
43,0.0977517032
44,0.0977517032
45,0.0879765415
46,0.0977517032
47,0.0977517032
48,0.0977517032
49,0.0879765415
50,0.0879765415
51,0.1075268864
52,0.0977517032
53,0.0977517032
54,0.0977517032
55,0.0977517032
56,0.1075268864
57,0.1075268864
58,0.0977517032
59,0.0977517032
60,0.1075268864
61,0.0977517032
62,0.0879765415
63,0.0782013654
64,0.0782013654
65,0.0879765415
66,0.1075268864
67,0.0977517032
68,0.0977517032
69,0.0879765415
70,0.0782013654
71,0.0879765415
72,0.0977517032
73,0.0977517032
74,0.0977517032
75,0.0879765415
76,0.0782013654
77,0.0782013654
78,0.0782013654
79,0.0782013654
80,0.0782013654
81,0.0977517032
82,0.1075268864
83,0.0977517032
84,0.0782013654
85,0.0879765415
86,0.0879765415
87,0.0879765415
88,0.0879765415
89,0.0879765415
90,0.0782013654
91,0.0782013654
92,0.0879765415
93,0.0879765415
94,0.0977517032
95,0.0879765415
96,0.0977517032
97,0.0879765415
98,0.0977517032
99,0.0782013654
100,0.0879765415
101,0.0879765415
102,0.0879765415
103,0.0782013654
104,0.0782013654
105,0.0782013654
106,0.0782013654
107,0.0879765415
108,0.0782013654
109,0.0684261989
110,0.0782013654
111,0.0879765415
112,0.0879765415
113,0.0879765415
114,0.0879765415
115,0.0782013654
116,0.0879765415
117,0.0879765415
118,0.0977517032
119,0.1075268864
120,0.0977517032
121,0.0879765415
122,0.0879765415
123,0.0977517032
124,0.0879765415
125,0.0879765415
126,0.0782013654
127,0.0684261989
128,0.0782013654
129,0.0782013654
130,0.0782013654
131,0.0782013654
132,0.0782013654
133,0.0879765415
134,0.0879765415
135,0.0879765415
136,0.0879765415
137,0.0782013654
138,0.0879765415
139,0.0782013654
140,0.0782013654
141,0.0879765415
142,0.0782013654
143,0.0879765415
144,0.0782013654
145,0.0879765415
146,0.0782013654
147,0.0684261989
148,0.0684261989
149,0.0684261989
150,0.0879765415
151,0.0977517032
152,0.0879765415
153,0.0977517032
154,0.0782013654
155,0.0879765415
156,0.0879765415
157,0.0879765415
158,0.0879765415
159,0.0782013654
160,0.0879765415
161,0.0782013654
162,0.0879765415
163,0.0977517032
164,0.0879765415
165,0.0879765415
166,0.0879765415
167,0.0977517032
168,0.0879765415
169,0.0879765415
170,0.0782013654
171,0.0782013654
172,0.0782013654
173,0.0684261989
174,0.0684261989
175,0.0684261989
176,0.0684261989
177,0.0782013654
178,0.0977517032
179,0.1075268864
180,0.0977517032
181,0.0879765415
182,0.0879765415
183,0.0782013654
184,0.0684261989
185,0.0782013654
186,0.0879765415
187,0.0977517032
188,0.0977517032
189,0.1075268864
190,0.1075268864
191,0.0977517032
192,0.1075268864
193,0.1075268864
194,0.0977517032
195,0.0977517032
196,0.0879765415
197,0.0782013654
198,0.0879765415
199,0.0782013654
200,0.1075268864
201,0.1075268864
202,0.1075268864
203,0.1075268864
204,0.1075268864
205,0.1270772218
206,0.1368523955
207,0.1368523955
208,0.1368523955
209,0.1564027309
210,0.1857282543
211,0.1759530782
212,0.1759530782
213,0.2150537729
214,0.2443792819
215,0.2541544437
216,0.2541544437
217,0.2932551193
218,0.2932551193
219,0.3030303001
220,0.3421309947
221,0.2932551193
222,0.3323558330
223,0.3128054618
224,0.3323558330
225,0.3616813421
226,0.3910068321
227,0.3910068321
228,0.3714565038
229,0.4007820129
230,0.3812316703
231,0.4105571746
232,0.4594330310
233,0.5669599056
234,0.5278592109
235,0.5571847438
236,0.6060606002
237,0.6451612472
238,0.6647116661
239,0.6060606002
240,0.7038123130
241,0.6647116661
242,0.6647116661
243,0.6549364089
244,0.8113391876
245,1.0068426132
246,0.9872922897
247,0.9775171279
248,0.9188660621
249,0.9188660621
250,0.9384163856
251,0.9579667091
252,1.1339198350
253,1.2609970569
254,1.3098728656
255,1.2805473804
256,1.6813293457
257,1.5933528900
258,1.4956011772
259,1.5542521476
260,1.4662756919
261,1.6031280517
262,1.7790811061
263,2.0332355499
264,2.3167154788
265,2.4340176582
266,2.2385141849
267,2.0625610351
268,2.2482893466
269,2.4926686286
270,2.3264906406
271,2.5610947608
272,2.6783969402
273,2.6588466167
274,2.6881721019
275,2.9032258987
276,3.0303030014
277,2.8543498992
278,2.8054740905
279,2.5122189521
280,2.4144673347
281,2.3460409641
282,2.6490714550
283,2.6588466167
284,2.5317692756
285,2.5415444374
286,2.6588466167
287,2.7956988811
288,2.4731183052
289,2.2873899936
290,2.2189638614
291,2.0234603881
292,1.7497556209
293,1.5249266624
294,1.2707722187
295,1.1241446733
296,0.9970674514
297,0.8211143493
298,0.6940371513
299,0.6451612472
300,0.5865102291
301,0.5180840492
302,0.4692081928
303,0.4398827075
304,0.4105571746
305,0.4105571746
306,0.4007820129
307,0.3421309947
308,0.3519061565
309,0.3421309947
310,0.3519061565
311,0.5278592109
312,0.5474095821
313,0.6647116661
314,0.7917888641
315,0.7135874748
316,0.6256109237
317,0.6940371513
318,0.7331378459
319,0.7135874748
320,0.9384163856
321,1.0850440216
322,1.2512218952
323,1.1436949968
324,1.2218964099
325,1.3489736318
326,1.4173997879
327,1.5053763389
328,1.3587487936
329,1.3294233083
330,1.6324535369
331,1.7595307826
332,1.6422286987
333,1.5640273094
334,1.5249266624
335,1.3294233083
336,1.2218964099
337,1.1241446733
338,1.1436949968
339,1.1339198350
340,1.1436949968
341,1.1632453203
342,1.1241446733
343,1.0459432601
344,0.9384163856
345,0.8113391876
346,0.8993157386
347,0.8015640258
348,0.7429130077
349,0.6940371513
350,0.6744868278
351,0.6451612472
352,0.5669599056
353,0.5376344203
354,0.5376344203
355,0.5865102291
356,0.5767350673
357,0.5962854385
358,0.5865102291
359,0.6158357620
360,0.5669599056
361,0.4985337257
362,0.4692081928
363,0.4692081928
364,0.4594330310
365,0.4594330310
366,0.4301075458
367,0.3910068321
368,0.3714565038
369,0.3225806236
370,0.2737047910
371,0.2834799575
372,0.2737047910
373,0.2346040964
374,0.2052785873
375,0.1759530782
376,0.1661779165
377,0.1564027309
378,0.1564027309
379,0.1466275596
380,0.1368523955
381,0.1368523955
382,0.1173020482
383,0.1173020482
384,0.2052785873
385,0.4301075458
386,0.4203323364
387,0.3519061565
388,0.3323558330
389,0.3323558330
390,0.3030303001
391,0.2541544437
392,0.2346040964
393,0.2541544437
394,0.2248289346
395,0.1955034160
396,0.1857282543
397,0.1857282543
398,0.1564027309
399,0.1466275596
400,0.1759530782
401,0.1759530782
402,0.1857282543
403,0.1759530782
404,0.1661779165
405,0.1564027309
406,0.1564027309
407,0.1661779165
408,0.1564027309
409,0.1661779165
410,0.1564027309
411,0.1368523955
412,0.1661779165
413,0.1466275596
414,0.1466275596
415,0.1466275596
416,0.1466275596
417,0.1368523955
418,0.1368523955
419,0.1661779165
420,0.1759530782
421,0.1759530782
422,0.1466275596
423,0.1270772218
424,0.1368523955
425,0.1270772218
426,0.1270772218
427,0.1173020482
428,0.1075268864
429,0.1075268864
430,0.1173020482
431,0.1173020482
432,0.1173020482
433,0.1075268864
434,0.1075268864
435,0.1466275596
436,0.1661779165
437,0.1564027309
438,0.1564027309
439,0.1564027309
440,0.1857282543
441,0.1661779165
442,0.1564027309
443,0.1564027309
444,0.1857282543
445,0.1759530782
446,0.1564027309
447,0.1661779165
448,0.1661779165
449,0.1466275596
450,0.1466275596
451,0.1270772218
452,0.1564027309
453,0.1564027309
454,0.1564027309
455,0.1368523955
456,0.1173020482
457,0.1075268864
458,0.1075268864
459,0.0977517032
460,0.0879765415
461,0.0879765415
462,0.0977517032
463,0.0879765415
464,0.0782013654
465,0.0782013654
466,0.0684261989
467,0.0782013654
468,0.0782013654
469,0.0684261989
470,0.0879765415
471,0.1270772218
472,0.1270772218
473,0.1173020482
474,0.1368523955
475,0.1270772218
476,0.1368523955
477,0.1270772218
478,0.1075268864
479,0.0977517032
480,0.0879765415
481,0.0977517032
482,0.1075268864
483,0.1270772218
484,0.1173020482
485,0.1173020482
486,0.1173020482
487,0.1270772218
488,0.1173020482
489,0.1270772218
490,0.1075268864
491,0.1564027309
492,0.1466275596
493,0.1270772218
494,0.1075268864
495,0.1173020482
496,0.1368523955
497,0.1270772218
498,0.1075268864
499,0.0977517032
500,0.1075268864
501,0.1075268864
502,0.0879765415
503,0.0782013654
504,0.1075268864
505,0.1075268864
506,0.0879765415
507,0.0782013654
508,0.0684261989
509,0.0879765415
510,0.0977517032
511,0.0879765415
512,0.0782013654
513,0.0782013654
514,0.1075268864
515,0.0879765415
516,0.0879765415
517,0.0879765415
518,0.0782013654
519,0.0782013654
520,0.0684261989
521,0.0684261989
522,0.0782013654
523,0.0879765415
524,0.0879765415
525,0.0879765415
526,0.0879765415
527,0.0782013654
528,0.0782013654
529,0.0879765415
530,0.1075268864
531,0.1368523955
532,0.1270772218
533,0.1173020482
534,0.1270772218
535,0.1368523955
536,0.1173020482
537,0.1075268864
538,0.0977517032
539,0.1075268864
540,0.1075268864
541,0.0977517032
542,0.0977517032
543,0.0977517032
544,0.0879765415
545,0.1075268864
546,0.1075268864
547,0.0977517032
548,0.0977517032
549,0.0879765415
550,0.0782013654
551,0.0879765415
552,0.0879765415
553,0.0879765415
554,0.0879765415
555,0.0879765415
556,0.0782013654
557,0.0782013654
558,0.0782013654
559,0.0977517032
560,0.0879765415
561,0.1075268864
562,0.1075268864
563,0.1075268864
564,0.1075268864
565,0.1173020482
566,0.1270772218
567,0.1173020482
568,0.1075268864
569,0.1075268864
570,0.1368523955
571,0.1270772218
572,0.1173020482
573,0.1075268864
574,0.1075268864
575,0.1075268864
576,0.1270772218
577,0.1270772218
578,0.1075268864
579,0.0977517032
580,0.0879765415
581,0.0879765415
582,0.0977517032
583,0.0977517032
584,0.0879765415
585,0.1075268864
586,0.0977517032
587,0.1075268864
588,0.0879765415
589,0.0879765415
590,0.0977517032
591,0.1075268864
592,0.1270772218
593,0.1173020482
594,0.1173020482
595,0.1075268864
596,0.0977517032
597,0.0879765415
598,0.0879765415
599,0.0879765415
600,0.0977517032
601,0.0879765415
602,0.0879765415
603,0.0977517032
604,0.0977517032
605,0.0977517032
606,0.0782013654
607,0.0782013654
608,0.0782013654
609,0.0879765415
610,0.0879765415
611,0.0977517032
612,0.1270772218
613,0.1270772218
614,0.1368523955
615,0.1270772218
616,0.1075268864
617,0.0977517032
618,0.1075268864
619,0.1173020482
620,0.1173020482
621,0.1075268864
622,0.0977517032
623,0.0977517032
624,0.0879765415
625,0.0782013654
626,0.0782013654
627,0.0879765415
628,0.0879765415
629,0.1075268864
630,0.1173020482
631,0.1270772218
632,0.1173020482
633,0.1270772218
634,0.1173020482
635,0.1075268864
636,0.1075268864
637,0.0879765415
638,0.0879765415
639,0.0977517032
640,0.1075268864
641,0.1173020482
642,0.1075268864
643,0.1173020482
644,0.1466275596
645,0.1759530782
646,0.1759530782
647,0.2150537729
648,0.1955034160
649,0.2639296054
650,0.2834799575
651,0.3030303001
652,0.3128054618
653,0.3030303001
654,0.3519061565
655,0.4301075458
656,0.4203323364
657,0.4398827075
658,0.4007820129
659,0.4398827075
660,0.4985337257
661,0.4789833545
662,0.4985337257
663,0.4887585639
664,0.4789833545
665,0.5278592109
666,0.5376344203
667,0.5376344203
668,0.6060606002
669,0.6451612472
670,0.6060606002
671,0.7038123130
672,0.7233626842
673,0.8015640258
674,0.9188660621
675,0.9579667091
676,0.9384163856
677,1.0948191833
678,1.0752688646
679,1.1730204820
680,1.3782991170
681,1.3196481466
682,1.3978494453
683,1.3196481466
684,1.3489736318
685,1.4956011772
686,1.4076246261
687,1.8768328666
688,1.8181818962
689,2.0430107116
690,2.0332355499
691,2.0039100646
692,1.9354838371
693,1.8768328666
694,2.1407625675
695,2.2385141849
696,2.1114368438
697,1.9843597412
698,2.0039100646
699,2.4144673347
700,2.6392962932
701,2.6979472637
702,2.8250244140
703,3.0205278396
704,3.2453567981
705,3.3822093009
706,3.1867058277
707,3.0400781631
708,3.2258064746
709,3.0889539718
710,2.9325513839
711,2.8739002227
712,2.5610947608
713,2.3558161258
714,2.3949170112
715,2.2385141849
716,2.3167154788
717,2.1407625675
718,1.8572825431
719,2.0234603881
720,1.8084066390
721,1.5640273094
722,1.3978494453
723,1.2609970569
724,1.0752688646
725,0.8993157386
726,0.7526881694
727,0.6549364089
728,0.5669599056
729,0.4692081928
730,0.4594330310
731,0.4496578693
732,0.4594330310
733,0.4594330310
734,0.4887585639
735,0.4692081928
736,0.4007820129
737,0.3812316703
738,0.5669599056
739,0.5376344203
740,0.7722384929
741,0.7135874748
742,0.7624633312
743,0.6842619895
744,0.6549364089
745,0.6451612472
746,0.5962854385
747,0.6353860855
748,0.6744868278
749,0.6549364089
750,0.6158357620
751,0.7917888641
752,0.7722384929
753,0.7135874748
754,0.8308895111
755,0.8308895111
756,0.7233626842
757,0.7135874748
758,0.6451612472
759,0.7331378459
760,0.7331378459
761,0.7917888641
762,0.7722384929
763,0.7820136547
764,0.8113391876
765,0.8895405769
766,0.9579667091
767,0.9188660621
768,0.8895405769
769,0.9384163856
770,0.8797654151
771,0.8504399299
772,0.8797654151
773,0.7820136547
774,0.7038123130
775,0.7135874748
776,0.7624633312
777,0.7820136547
778,0.7233626842
779,0.6744868278
780,0.6353860855
781,0.5474095821
782,0.6353860855
783,0.6158357620
784,0.5669599056
785,0.5474095821
786,0.4985337257
787,0.5180840492
788,0.4692081928
789,0.4301075458
790,0.3910068321
791,0.3519061565
792,0.3519061565
793,0.3323558330
794,0.3519061565
795,0.3910068321
796,0.3616813421
797,0.3519061565
798,0.3323558330
799,0.3225806236
800,0.3030303001
801,0.2932551193
802,0.2737047910
803,0.2639296054
804,0.2443792819
805,0.2443792819
806,0.2052785873
807,0.1857282543
808,0.1857282543
809,0.1661779165
810,0.1564027309
811,0.1368523955
812,0.1368523955
813,0.1270772218
814,0.1173020482
815,0.1075268864
816,0.1075268864
817,0.1173020482
818,0.1270772218
819,0.1075268864
820,0.1075268864
821,0.1075268864
822,0.1661779165
823,0.1466275596
824,0.1661779165
825,0.1564027309
826,0.1368523955
827,0.1173020482
828,0.0977517032
829,0.0879765415
830,0.0879765415
831,0.0879765415
832,0.0782013654
833,0.0782013654
834,0.0879765415
835,0.0977517032
836,0.0879765415
837,0.0977517032
838,0.1173020482
839,0.1173020482
840,0.1075268864
841,0.0977517032
842,0.1075268864
843,0.1075268864
844,0.1075268864
845,0.0977517032
846,0.0977517032
847,0.1075268864
848,0.1075268864
849,0.1075268864
850,0.0977517032
851,0.0977517032
852,0.1075268864
853,0.0977517032
854,0.1075268864
855,0.1075268864
856,0.1075268864
857,0.1075268864
858,0.1075268864
859,0.1075268864
860,0.0977517032
861,0.0782013654
862,0.1173020482
863,0.1075268864
864,0.1075268864
865,0.1075268864
866,0.1075268864
867,0.1075268864
868,0.0977517032
869,0.0977517032
870,0.0879765415
871,0.0977517032
872,0.0977517032
873,0.0977517032
874,0.0977517032
875,0.1075268864
876,0.0977517032
877,0.1075268864
878,0.1075268864
879,0.0977517032
880,0.0977517032
881,0.1075268864
882,0.1173020482
883,0.1075268864
884,0.1173020482
885,0.1173020482
886,0.1173020482
887,0.1075268864
888,0.0977517032
889,0.2248289346
890,0.2541544437
891,0.2834799575
892,0.2737047910
893,0.2541544437
894,0.2150537729
895,0.1955034160
896,0.2052785873
897,0.1857282543
898,0.1661779165
899,0.1368523955
900,0.1368523955
901,0.1368523955
902,0.1564027309
903,0.1466275596
904,0.1270772218
905,0.1075268864
906,0.1075268864
907,0.1270772218
908,0.1075268864
909,0.0977517032
910,0.1075268864
911,0.0977517032
912,0.0879765415
913,0.0879765415
914,0.0977517032
915,0.1075268864
916,0.0977517032
917,0.0879765415
918,0.0879765415
919,0.1075268864
920,0.1564027309
921,0.1661779165
922,0.1466275596
923,0.1270772218
924,0.1075268864
925,0.1173020482
926,0.1368523955
927,0.1466275596
928,0.1270772218
929,0.1173020482
930,0.1075268864
931,0.1368523955
932,0.1270772218
933,0.1075268864
934,0.0977517032
935,0.1075268864
936,0.0977517032
937,0.0977517032
938,0.0977517032
939,0.0977517032
940,0.1173020482
941,0.1270772218
942,0.1270772218
943,0.1173020482
944,0.1173020482
945,0.1075268864
946,0.0977517032
947,0.1075268864
948,0.0879765415
949,0.0782013654
950,0.0782013654
951,0.1075268864
952,0.0879765415
953,0.0977517032
954,0.1075268864
955,0.1368523955
956,0.1173020482
957,0.1075268864
958,0.1075268864
959,0.0977517032
960,0.0879765415
961,0.0782013654
962,0.0879765415
963,0.0977517032
964,0.0977517032
965,0.0977517032
966,0.0977517032
967,0.0977517032
968,0.0977517032
969,0.0977517032
970,0.0879765415
971,0.0977517032
972,0.0977517032
973,0.1075268864
974,0.0977517032
975,0.0977517032
976,0.0977517032
977,0.0977517032
978,0.0977517032
979,0.1075268864
980,0.0977517032
981,0.1075268864
982,0.0977517032
983,0.0977517032
984,0.1075268864
985,0.0977517032
986,0.0977517032
987,0.1075268864
988,0.1075268864
989,0.1075268864
990,0.1075268864
991,0.0977517032
992,0.1075268864
993,0.0977517032
994,0.0879765415
995,0.0879765415
996,0.0782013654
997,0.0879765415
998,0.0977517032
999,0.0977517032
1000,0.1466275596
1001,2.4046921730
1002,2.0039100646
1003,1.6422286987
1004,1.3978494453
1005,1.1925709247
1006,1.0068426132
1007,0.8504399299
1008,0.7135874748
1009,0.6158357620
1010,0.5278592109
1011,0.4594330310
1012,0.4594330310
1013,0.5083088874
1014,0.4301075458
1015,0.4985337257
1016,0.4594330310
1017,0.4007820129
1018,0.3519061565
1019,0.3225806236
1020,0.2639296054
1021,0.2443792819
1022,0.2346040964
1023,0.2346040964
1024,0.2052785873
1025,0.1759530782
1026,0.1661779165
1027,0.1466275596
1028,0.1270772218
1029,0.1270772218
1030,0.1759530782
1031,0.1857282543
1032,0.2150537729
1033,0.2150537729
1034,0.2443792819
1035,0.2346040964
1036,0.2052785873
1037,0.2248289346
1038,0.1955034160
1039,0.1759530782
1040,0.1857282543
1041,0.1661779165
1042,0.1466275596
1043,0.1368523955
1044,0.1173020482
1045,0.1173020482
1046,0.0977517032
1047,0.1075268864
1048,0.0977517032
1049,0.0782013654
1050,0.0782013654
1051,0.0684261989
1052,0.0586510229
1053,0.0586510229
1054,0.0586510229
1055,0.0684261989
1056,0.0782013654
1057,0.0879765415
1058,0.0879765415
1059,0.0977517032
1060,0.1075268864
1061,0.0879765415
1062,0.0782013654
1063,0.0684261989
1064,0.0684261989
1065,0.0782013654
1066,0.0782013654
1067,0.0879765415
1068,0.0782013654
1069,0.0782013654
1070,0.0684261989
1071,0.0684261989
1072,0.0586510229
1073,0.0586510229
1074,0.0586510229
1075,0.0586510229
1076,0.0782013654
1077,0.0782013654
1078,0.0684261989
1079,0.0879765415
1080,0.0879765415
1081,0.0879765415
1082,0.0977517032
1083,0.0977517032
1084,0.1075268864
1085,0.1173020482
1086,0.1075268864
1087,0.0977517032
1088,0.1075268864
1089,0.1173020482
1090,0.1075268864
1091,0.1075268864
1092,0.0977517032
1093,0.0977517032
1094,0.0879765415
1095,0.0782013654
1096,0.0782013654
1097,0.0684261989
1098,0.0684261989
1099,0.0586510229
1100,0.0488758516
1101,0.0391006832
1102,0.0391006832
1103,0.0391006832
1104,0.0391006832
1105,0.0488758516
1106,0.0586510229
1107,0.0684261989
1108,0.0782013654
1109,0.0782013654
1110,0.0879765415
1111,0.0879765415
1112,0.0879765415
1113,0.0782013654
1114,0.0782013654
1115,0.0684261989
1116,0.0586510229
1117,0.0586510229
1118,0.0586510229
1119,0.0586510229
1120,0.0586510229
1121,0.0586510229
1122,0.0684261989
1123,0.0684261989
1124,0.0684261989
1125,0.0684261989
1126,0.0782013654
1127,0.0782013654
1128,0.0782013654
1129,0.0879765415
1130,0.0782013654
1131,0.0684261989
1132,0.0684261989
1133,0.0684261989
1134,0.0586510229
1135,0.0684261989
1136,0.0684261989
1137,0.0684261989
1138,0.0684261989
1139,0.0684261989
1140,0.0684261989
1141,0.0782013654
1142,0.0782013654
1143,0.0879765415
1144,0.0782013654
1145,0.0782013654
1146,0.0879765415
1147,0.0782013654
1148,0.0782013654
1149,0.0684261989
1150,0.0684261989
1151,0.0684261989
1152,0.0684261989
1153,0.0684261989
1154,0.0586510229
1155,0.0684261989
1156,0.0782013654
1157,0.0782013654
1158,0.0879765415
1159,0.0782013654
1160,0.0684261989
1161,0.0586510229
1162,0.0684261989
1163,0.0684261989
1164,0.0684261989
1165,0.0684261989
1166,0.0586510229
1167,0.0684261989
1168,0.0586510229
1169,0.0586510229
1170,0.0684261989
1171,0.0684261989
1172,0.0684261989
1173,0.0684261989
1174,0.0782013654
1175,0.0782013654
1176,0.0782013654
1177,0.0879765415
1178,0.0782013654
1179,0.0782013654
1180,0.0782013654
1181,0.0684261989
1182,0.0684261989
1183,0.0684261989
1184,0.0684261989
1185,0.0684261989
1186,0.0586510229
1187,0.0586510229
1188,0.0586510229
1189,0.0586510229
1190,0.0684261989
1191,0.0684261989
1192,0.0684261989
1193,0.0684261989
1194,0.0684261989
1195,0.0684261989
1196,0.0684261989
1197,0.0684261989
1198,0.0684261989
1199,0.0782013654
1200,0.0782013654
1201,0.0782013654
1202,0.0684261989
1203,0.0684261989
1204,0.0684261989
1205,0.0684261989
1206,0.0684261989
1207,0.0684261989
1208,0.0684261989
1209,0.0684261989
1210,0.0684261989
1211,0.0684261989
1212,0.0684261989
1213,0.0684261989
1214,0.0782013654
1215,0.0782013654
1216,0.0782013654
1217,0.0782013654
1218,0.0782013654
1219,0.0782013654
1220,0.0684261989
1221,0.0684261989
1222,0.0684261989
1223,0.0684261989
1224,0.0684261989
1225,0.0684261989
1226,0.0684261989
1227,0.0684261989
1228,0.0684261989
1229,0.0684261989
1230,0.0684261989
1231,0.0684261989
1232,0.0684261989
1233,0.0684261989
1234,0.0684261989
1235,0.0684261989
1236,0.0684261989
1237,0.0782013654
1238,0.0684261989
1239,0.0684261989
1240,0.0684261989
1241,0.0684261989
1242,0.0684261989
1243,0.0684261989
1244,0.0684261989
1245,0.0684261989
1246,0.0684261989
1247,0.0684261989
1248,0.0684261989
1249,0.0684261989
1250,0.0684261989
1251,0.0684261989
1252,0.0684261989
1253,0.0684261989
1254,0.0684261989
1255,0.0684261989
1256,0.0684261989
1257,0.0684261989
1258,0.0684261989
1259,0.0684261989
1260,0.0684261989
1261,0.0684261989
1262,0.0684261989
1263,0.0684261989
1264,0.0684261989
1265,0.0684261989
1266,0.0782013654
1267,0.0782013654
1268,0.0684261989
1269,0.0684261989
1270,0.0782013654
1271,0.0684261989
1272,0.0684261989
1273,0.0684261989
1274,0.0684261989
1275,0.0684261989
1276,0.0684261989
1277,0.0684261989
1278,0.0782013654
1279,0.0782013654
1280,0.0782013654
1281,0.0684261989
1282,0.0684261989
1283,0.0684261989
1284,0.0684261989
1285,0.0684261989
1286,0.0684261989
1287,0.0684261989
1288,0.0684261989
1289,0.0684261989
1290,0.0684261989
1291,0.0684261989
1292,0.0684261989
1293,0.0684261989
1294,0.0684261989
1295,0.0684261989
1296,0.0684261989
1297,0.0684261989
1298,0.0586510229
1299,0.0684261989
1300,0.0684261989
1301,0.0684261989
1302,0.0782013654
1303,0.0684261989
1304,0.0782013654
1305,0.0684261989
1306,0.0684261989
1307,0.0684261989
1308,0.0684261989
1309,0.0684261989
1310,0.0684261989
1311,0.0684261989
1312,0.0684261989
1313,0.0586510229
1314,0.0684261989
1315,0.0684261989
1316,0.0684261989
1317,0.0782013654
1318,0.0684261989
1319,0.0782013654
1320,0.0782013654
1321,0.0684261989
1322,0.0684261989
1323,0.0684261989
1324,0.0684261989
1325,0.0684261989
1326,0.0684261989
1327,0.0684261989
1328,0.0684261989
1329,0.0684261989
1330,0.0684261989
1331,0.0684261989
1332,0.0684261989
1333,0.0782013654
1334,0.0782013654
1335,0.0782013654
1336,0.0782013654
1337,0.0782013654
1338,0.0782013654
1339,0.0782013654
1340,0.0782013654
1341,0.0684261989
1342,0.0684261989
1343,0.0782013654
1344,0.0684261989
1345,0.0684261989
1346,0.0684261989
1347,0.0684261989
1348,0.0684261989
1349,0.0684261989
1350,0.0684261989
1351,0.0684261989
1352,0.0684261989
1353,0.0782013654
1354,0.0684261989
1355,0.0684261989
1356,0.0684261989
1357,0.0684261989
1358,0.0684261989
1359,0.0684261989
1360,0.0684261989
1361,0.0684261989
1362,0.0684261989
1363,0.0782013654
1364,0.0782013654
1365,0.0684261989
1366,0.0684261989
1367,0.0684261989
1368,0.0782013654
1369,0.0684261989
1370,0.0782013654
1371,0.0684261989
1372,0.0684261989
1373,0.0684261989
1374,0.0684261989
1375,0.0684261989
1376,0.0684261989
1377,0.0684261989
1378,0.0684261989
1379,0.0684261989
1380,0.0782013654
1381,0.0684261989
1382,0.0782013654
1383,0.0782013654
1384,0.0782013654
1385,0.0782013654
1386,0.0782013654
1387,0.0684261989
1388,0.0782013654
1389,0.0684261989
1390,0.0684261989
1391,0.0782013654
1392,0.0684261989
1393,0.0782013654
1394,0.0782013654
1395,0.0782013654
1396,0.0782013654
1397,0.0684261989
1398,0.0684261989
1399,0.0782013654
1400,0.0782013654
1401,0.0684261989
1402,0.0684261989
1403,0.0782013654
1404,0.0782013654
1405,0.0782013654
1406,0.0684261989
1407,0.0782013654
1408,0.0684261989
1409,0.0782013654
1410,0.0684261989
1411,0.0684261989
1412,0.0782013654
1413,0.0684261989
1414,0.0782013654
1415,0.0782013654
1416,0.0684261989
1417,0.0684261989
1418,0.0782013654
1419,0.0782013654
1420,0.0782013654
1421,0.0782013654
1422,0.0879765415
1423,0.0879765415
1424,0.0879765415
1425,0.0782013654
1426,0.0782013654
1427,0.0879765415
1428,0.0879765415
1429,0.0977517032
1430,0.0977517032
1431,0.0977517032
1432,0.1075268864
1433,0.1075268864
1434,0.1173020482
1435,0.1075268864
1436,0.1075268864
1437,0.1173020482
1438,0.1173020482
1439,0.1173020482
1440,0.1173020482
1441,0.1661779165
1442,0.1661779165
1443,0.1661779165
1444,0.1661779165
1445,0.1564027309
1446,0.1466275596
1447,0.1661779165
1448,0.1661779165
1449,0.1564027309
1450,0.1759530782
1451,0.1955034160
1452,0.1955034160
1453,0.1857282543
1454,0.2052785873
1455,0.2248289346
1456,0.2346040964
1457,0.2150537729
1458,0.1857282543
1459,0.1857282543
1460,0.1759530782
1461,0.1857282543
1462,0.1759530782
1463,0.1564027309
1464,0.1661779165
1465,0.1661779165
1466,0.1661779165
1467,0.1466275596
1468,0.1466275596
1469,0.1368523955
1470,0.1270772218
1471,0.1173020482
1472,0.1173020482
1473,0.1075268864
1474,0.0977517032
1475,0.0977517032
1476,0.0977517032
1477,0.0977517032
1478,0.0977517032
1479,0.1075268864
1480,0.1075268864
1481,0.1075268864
1482,0.1368523955
1483,0.1368523955
1484,0.1270772218
1485,0.1368523955
1486,0.1466275596
1487,0.1564027309
1488,0.1466275596
1489,0.1661779165
1490,0.1661779165
1491,0.1564027309
1492,0.1466275596
1493,0.1564027309
1494,0.1466275596
1495,0.1564027309
1496,0.1564027309
1497,0.1759530782
1498,0.1955034160
1499,0.1759530782
1500,0.1661779165
1501,0.1466275596
1502,0.1466275596
1503,0.1368523955
1504,0.1368523955
1505,0.1466275596
1506,0.1564027309
1507,0.1466275596
1508,0.1466275596
1509,0.1368523955
1510,0.1368523955
1511,0.1270772218
1512,0.1075268864
1513,0.1173020482
1514,0.1075268864
1515,0.0977517032
1516,0.0879765415
1517,0.0977517032
1518,0.1075268864
1519,0.1173020482
1520,0.1075268864
1521,0.1075268864
1522,0.1075268864
1523,0.1075268864
1524,0.1173020482
1525,0.1173020482
1526,0.1075268864
1527,0.0977517032
1528,0.0977517032
1529,0.0879765415
1530,0.0879765415
1531,0.0879765415
1532,0.0879765415
1533,0.0782013654
1534,0.0782013654
1535,0.0782013654
1536,0.0684261989
1537,0.0684261989
1538,0.0684261989
1539,0.0684261989
1540,0.0684261989
1541,0.0684261989
1542,0.0586510229
1543,0.0586510229
1544,0.0782013654
1545,0.0782013654
1546,0.0782013654
1547,0.0977517032
1548,0.0782013654
1549,0.0977517032
1550,0.0977517032
1551,0.0879765415
1552,0.0782013654
1553,0.0684261989
1554,0.0684261989
1555,0.0684261989
1556,0.0684261989
1557,0.0684261989
1558,0.0684261989
1559,0.0684261989
1560,0.0586510229
1561,0.0684261989
1562,0.0782013654
1563,0.0782013654
1564,0.0879765415
1565,0.0879765415
1566,0.0782013654
1567,0.0782013654
1568,0.0684261989
1569,0.0684261989
1570,0.0684261989
1571,0.0684261989
1572,0.0684261989
1573,0.0684261989
1574,0.0684261989
1575,0.0684261989
1576,0.0684261989
1577,0.0684261989
1578,0.0684261989
1579,0.0684261989
1580,0.0684261989
1581,0.0684261989
1582,0.0684261989
1583,0.0782013654
1584,0.0684261989
1585,0.0684261989
1586,0.0684261989
1587,0.0684261989
1588,0.0684261989
1589,0.0684261989
1590,0.0684261989
1591,0.0684261989
1592,0.0684261989
1593,0.0782013654
1594,0.0684261989
1595,0.0684261989
1596,0.0684261989
1597,0.0684261989
1598,0.0684261989
1599,0.0684261989
1600,0.0684261989
1601,0.0684261989
1602,0.0684261989
1603,0.0684261989
1604,0.0684261989
1605,0.0684261989
1606,0.0684261989
1607,0.0684261989
1608,0.0684261989
1609,0.0782013654
1610,0.0782013654
1611,0.0782013654
1612,0.0879765415
1613,0.0782013654
1614,0.0684261989
1615,0.0684261989
1616,0.0684261989
1617,0.0684261989
1618,0.0782013654
1619,0.0684261989
1620,0.0684261989
1621,0.0782013654
1622,0.0879765415
1623,0.0782013654
1624,0.0782013654
1625,0.0684261989
1626,0.0782013654
1627,0.0684261989
1628,0.0684261989
1629,0.0684261989
1630,0.0684261989
1631,0.0782013654
1632,0.0782013654
1633,0.0782013654
1634,0.0782013654
1635,0.0782013654
1636,0.0684261989
1637,0.0782013654
1638,0.0684261989
1639,0.0684261989
1640,0.0684261989
1641,0.0684261989
1642,0.0684261989
1643,0.0782013654
1644,0.0782013654
1645,0.0782013654
1646,0.0684261989
1647,0.0782013654
1648,0.0684261989
1649,0.0684261989
1650,0.0684261989
1651,0.0684261989
1652,0.0782013654
1653,0.0684261989
1654,0.0684261989
1655,0.0684261989
1656,0.0684261989
1657,0.0782013654
1658,0.0782013654
1659,0.0782013654
1660,0.0782013654
1661,0.0782013654
1662,0.0782013654
1663,0.0782013654
1664,0.0782013654
1665,0.0684261989
1666,0.0782013654
1667,0.0782013654
1668,0.0684261989
1669,0.0684261989
1670,0.0684261989
1671,0.0782013654
1672,0.0684261989
1673,0.0782013654
1674,0.0782013654
1675,0.0684261989
1676,0.0782013654
1677,0.0684261989
1678,0.0684261989
1679,0.0684261989
1680,0.0684261989
1681,0.0684261989
1682,0.0684261989
1683,0.0684261989
1684,0.0684261989
1685,0.0684261989
1686,0.0684261989
1687,0.0684261989
1688,0.0586510229
1689,0.0684261989
1690,0.0684261989
1691,0.0684261989
1692,0.0684261989
1693,0.0684261989
1694,0.0684261989
1695,0.0684261989
1696,0.0782013654
1697,0.0977517032
1698,0.0879765415
1699,0.0782013654
1700,0.0879765415
1701,0.0977517032
1702,0.0879765415
1703,0.0782013654
1704,0.0782013654
1705,0.0684261989
1706,0.0684261989
1707,0.0586510229
1708,0.0586510229
1709,0.0586510229
1710,0.0684261989
1711,0.0684261989
1712,0.0684261989
1713,0.0684261989
1714,0.0684261989
1715,0.0782013654
1716,0.0782013654
1717,0.0782013654
1718,0.0782013654
1719,0.0782013654
1720,0.0782013654
1721,0.0782013654
1722,0.0782013654
1723,0.0782013654
1724,0.0684261989
1725,0.0684261989
1726,0.0684261989
1727,0.0684261989
1728,0.0684261989
1729,0.0684261989
1730,0.0684261989
1731,0.0684261989
1732,0.0684261989
1733,0.0684261989
1734,0.0684261989
1735,0.0684261989
1736,0.0684261989
1737,0.0782013654
1738,0.0782013654
1739,0.0977517032
1740,0.1075268864
1741,0.1075268864
1742,0.1075268864
1743,0.0977517032
1744,0.1075268864
1745,0.1173020482
1746,0.1173020482
1747,0.1270772218
1748,0.1661779165
1749,0.1955034160
1750,0.2443792819
1751,0.2639296054
1752,0.3030303001
1753,0.3616813421
1754,0.3323558330
1755,0.3030303001
1756,0.2834799575
1757,0.3030303001
1758,0.3030303001
1759,0.2737047910
1760,0.2443792819
1761,0.2150537729
1762,0.1857282543
1763,0.1759530782
1764,0.1759530782
1765,0.1564027309
1766,0.1368523955
1767,0.1173020482
1768,0.1075268864
1769,0.1368523955
1770,0.1466275596
1771,0.1173020482
1772,0.1173020482
1773,0.1075268864
1774,0.1368523955
1775,0.1466275596
1776,0.1466275596
1777,0.1368523955
1778,0.1368523955
1779,0.1173020482
1780,0.0977517032
1781,0.1075268864
1782,0.1075268864
1783,0.0977517032
1784,0.1075268864
1785,0.1466275596
1786,0.1368523955
1787,0.1270772218
1788,0.1466275596
1789,0.1466275596
1790,0.1661779165
1791,0.1759530782
1792,0.1661779165
1793,0.1564027309
1794,0.1368523955
1795,0.1173020482
1796,0.1075268864
1797,0.1075268864
1798,0.1270772218
1799,0.1075268864
1800,0.0977517032
1801,0.0977517032
1802,0.1075268864
1803,0.0977517032
1804,0.0879765415
1805,0.0782013654
1806,0.0684261989
1807,0.0586510229
1808,0.0586510229
1809,0.0586510229
1810,0.0684261989
1811,0.0782013654
1812,0.0782013654
1813,0.0782013654
1814,0.0684261989
1815,0.0684261989
1816,0.0782013654
1817,0.0684261989
1818,0.0684261989
1819,0.0684261989
1820,0.0684261989
1821,0.0782013654
1822,0.0782013654
1823,0.0782013654
1824,0.0684261989
1825,0.0586510229
1826,0.0586510229
1827,0.0586510229
1828,0.0684261989
1829,0.0684261989
1830,0.0684261989
1831,0.0684261989
1832,0.0684261989
1833,0.0684261989
1834,0.0684261989
1835,0.0684261989
1836,0.0684261989
1837,0.0782013654
1838,0.0684261989
1839,0.0684261989
1840,0.0684261989
1841,0.0684261989
1842,0.0684261989
1843,0.0684261989
1844,0.0684261989
1845,0.0684261989
1846,0.0684261989
1847,0.0684261989
1848,0.0684261989
1849,0.0684261989
1850,0.0684261989
1851,0.0684261989
1852,0.0684261989
1853,0.0684261989
1854,0.0684261989
1855,0.0782013654
1856,0.0684261989
1857,0.0684261989
1858,0.0684261989
1859,0.0684261989
1860,0.0684261989
1861,0.0684261989
1862,0.0684261989
1863,0.0684261989
1864,0.0684261989
1865,0.0684261989
1866,0.0684261989
1867,0.0782013654
1868,0.0684261989
1869,0.0684261989
1870,0.0586510229
1871,0.0586510229
1872,0.0586510229
1873,0.0684261989
1874,0.0684261989
1875,0.0684261989
1876,0.0684261989
1877,0.0782013654
1878,0.0684261989
1879,0.0684261989
1880,0.0586510229
1881,0.0684261989
1882,0.0782013654
1883,0.0879765415
1884,0.0977517032
1885,0.0879765415
1886,0.0782013654
1887,0.0782013654
1888,0.0782013654
1889,0.0684261989
1890,0.0684261989
1891,0.0782013654
1892,0.0684261989
1893,0.0684261989
1894,0.0782013654
1895,0.0782013654
1896,0.0684261989
1897,0.0586510229
1898,0.0684261989
1899,0.0684261989
1900,0.0684261989
1901,0.0684261989
1902,0.0684261989
1903,0.0782013654
1904,0.0782013654
1905,0.0782013654
1906,0.0782013654
1907,0.0684261989
1908,0.0684261989
1909,0.0684261989
1910,0.0684261989
1911,0.0684261989
1912,0.0684261989
1913,0.0782013654
1914,0.0684261989
1915,0.0684261989
1916,0.0782013654
1917,0.0684261989
1918,0.0684261989
1919,0.0684261989
1920,0.0782013654
1921,0.0782013654
1922,0.0782013654
1923,0.0684261989
1924,0.0684261989
1925,0.0684261989
1926,0.0782013654
1927,0.0684261989
1928,0.0684261989
1929,0.0684261989
1930,0.0684261989
1931,0.0782013654
1932,0.0782013654
1933,0.0684261989
1934,0.0782013654
1935,0.0782013654
1936,0.0782013654
1937,0.0879765415
1938,0.0879765415
1939,0.0879765415
1940,0.0879765415
1941,0.0879765415
1942,0.0879765415
1943,0.0879765415
1944,0.0879765415
1945,0.0879765415
1946,0.0782013654
1947,0.0684261989
1948,0.0782013654
1949,0.0684261989
1950,0.0684261989
1951,0.0782013654
1952,0.0684261989
1953,0.0782013654
1954,0.0782013654
1955,0.0782013654
1956,0.0782013654
1957,0.0782013654
1958,0.0684261989
1959,0.0684261989
1960,0.0684261989
1961,0.0684261989
1962,0.0684261989
1963,0.0684261989
1964,0.0684261989
1965,0.0684261989
1966,0.0684261989
1967,0.0684261989
1968,0.0684261989
1969,0.0684261989
1970,0.0684261989
1971,0.0684261989
1972,0.0684261989
1973,0.0684261989
1974,0.0684261989
1975,0.0684261989
1976,0.0684261989
1977,0.0684261989
1978,0.0684261989
1979,0.0684261989
1980,0.0684261989
1981,0.0684261989
1982,0.0684261989
1983,0.0684261989
1984,0.0684261989
1985,0.0684261989
1986,0.0684261989
1987,0.0684261989
1988,0.0684261989
1989,0.0684261989
1990,0.0684261989
1991,0.0782013654
1992,0.0684261989
1993,0.0684261989
1994,0.0684261989
1995,0.0684261989
1996,0.0684261989
1997,0.0684261989
1998,0.0684261989
1999,0.0684261989
2000,0.0879765415
2001,1.2707722187
2002,1.0166177749
2003,0.8211143493
2004,0.6647116661
2005,0.5376344203
2006,0.4398827075
2007,0.3616813421
2008,0.3030303001
2009,0.2639296054
2010,0.2248289346
2011,0.1955034160
2012,0.1759530782
2013,0.1564027309
2014,0.1368523955
2015,0.1270772218
2016,0.1270772218
2017,0.1173020482
2018,0.1173020482
2019,0.1075268864
2020,0.1075268864
2021,0.0977517032
2022,0.0977517032
2023,0.0977517032
2024,0.0879765415
2025,0.0977517032
2026,0.1075268864
2027,0.1075268864
2028,0.1075268864
2029,0.0977517032
2030,0.0977517032
2031,0.0977517032
2032,0.0977517032
2033,0.0977517032
2034,0.0977517032
2035,0.0977517032
2036,0.0977517032
2037,0.0977517032
2038,0.0977517032
2039,0.0977517032
2040,0.0977517032
2041,0.0977517032
2042,0.0977517032
2043,0.0977517032
2044,0.0977517032
2045,0.0977517032
2046,0.1075268864
2047,0.1075268864
2048,0.0977517032
2049,0.0977517032
2050,0.0977517032
2051,0.0977517032
2052,0.0977517032
2053,0.0977517032
2054,0.0977517032
2055,0.0977517032
2056,0.0977517032
2057,0.0977517032
2058,0.0977517032
2059,0.0977517032
2060,0.0977517032
2061,0.0977517032
2062,0.1075268864
2063,0.1075268864
2064,0.1075268864
2065,0.1075268864
2066,0.1075268864
2067,0.1075268864
2068,0.1075268864
2069,0.1075268864
2070,0.1075268864
2071,0.0977517032
2072,0.0977517032
2073,0.0977517032
2074,0.0977517032
2075,0.0977517032
2076,0.0977517032
2077,0.0977517032
2078,0.1075268864
2079,0.1075268864
2080,0.0977517032
2081,0.0977517032
2082,0.0977517032
2083,0.0977517032
2084,0.0977517032
2085,0.0977517032
2086,0.1075268864
2087,0.1075268864
2088,0.1075268864
2089,0.0977517032
2090,0.0977517032
2091,0.0977517032
2092,0.0977517032
2093,0.0977517032
2094,0.0977517032
2095,0.0977517032
2096,0.0977517032
2097,0.0977517032
2098,0.0977517032
2099,0.0977517032
2100,0.1075268864
2101,0.0977517032
2102,0.1075268864
2103,0.0977517032
2104,0.0977517032
2105,0.1075268864
2106,0.0977517032
2107,0.1075268864
2108,0.1075268864
2109,0.1075268864
2110,0.1075268864
2111,0.0977517032
2112,0.0977517032
2113,0.0977517032
2114,0.0977517032
2115,0.0977517032
2116,0.0977517032
2117,0.0977517032
2118,0.0977517032
2119,0.0977517032
2120,0.0977517032
2121,0.0879765415
2122,0.0977517032
2123,0.0879765415
2124,0.0977517032
2125,0.0879765415
2126,0.0977517032
2127,0.0879765415
2128,0.0879765415
2129,0.0879765415
2130,0.0879765415
2131,0.0977517032
2132,0.0879765415
2133,0.0879765415
2134,0.0879765415
2135,0.0879765415
2136,0.0879765415
2137,0.0879765415
2138,0.0879765415
2139,0.0879765415
2140,0.0879765415
2141,0.0879765415
2142,0.0879765415
2143,0.0879765415
2144,0.0879765415
2145,0.0879765415
2146,0.0977517032
2147,0.0879765415
2148,0.0977517032
2149,0.0977517032
2150,0.0879765415
2151,0.0977517032
2152,0.0977517032
2153,0.0977517032
2154,0.0977517032
2155,0.0977517032
2156,0.0977517032
2157,0.0977517032
2158,0.0977517032
2159,0.0879765415
2160,0.0879765415
2161,0.0879765415
2162,0.0879765415
2163,0.0879765415
2164,0.0879765415
2165,0.0879765415
2166,0.0879765415
2167,0.0879765415
2168,0.0879765415
2169,0.0879765415
2170,0.0879765415
2171,0.0879765415
2172,0.0879765415
2173,0.0879765415
2174,0.0879765415
2175,0.0879765415
2176,0.0879765415
2177,0.0879765415
2178,0.0879765415
2179,0.0879765415
2180,0.0879765415
2181,0.0782013654
2182,0.0879765415
2183,0.0879765415
2184,0.0879765415
2185,0.0879765415
2186,0.0879765415
2187,0.0879765415
2188,0.0879765415
2189,0.0879765415
2190,0.0879765415
2191,0.0879765415
2192,0.0879765415
2193,0.0879765415
2194,0.0879765415
2195,0.0879765415
2196,0.0879765415
2197,0.0879765415
2198,0.0879765415
2199,0.0879765415
2200,0.0879765415
2201,0.0879765415
2202,0.0879765415
2203,0.0879765415
2204,0.0879765415
2205,0.0879765415
2206,0.0879765415
2207,0.0879765415
2208,0.0782013654
2209,0.0879765415
2210,0.0879765415
2211,0.0879765415
2212,0.0782013654
2213,0.0879765415
2214,0.0782013654
2215,0.0879765415
2216,0.0782013654
2217,0.0782013654
2218,0.0782013654
2219,0.0879765415
2220,0.0782013654
2221,0.0782013654
2222,0.0782013654
2223,0.0782013654
2224,0.0879765415
2225,0.0782013654
2226,0.0782013654
2227,0.0782013654
2228,0.0879765415
2229,0.0782013654
2230,0.0879765415
2231,0.0879765415
2232,0.0879765415
2233,0.0879765415
2234,0.0879765415
2235,0.0879765415
2236,0.0879765415
2237,0.0879765415
2238,0.0879765415
2239,0.0879765415
2240,0.0879765415
2241,0.0879765415
2242,0.0977517032
2243,0.0977517032
2244,0.0977517032
2245,0.0977517032
2246,0.0977517032
2247,0.1075268864
2248,0.1173020482
2249,0.1173020482
2250,0.1173020482
2251,0.1173020482
2252,0.1173020482
2253,0.1173020482
2254,0.1173020482
2255,0.1173020482
2256,0.1173020482
2257,0.1173020482
2258,0.1173020482
2259,0.1075268864
2260,0.1075268864
2261,0.0977517032
2262,0.0977517032
2263,0.1075268864
2264,0.1075268864
2265,0.1075268864
2266,0.1075268864
2267,0.0977517032
2268,0.1075268864
2269,0.1075268864
2270,0.1075268864
2271,0.1075268864
2272,0.0977517032
2273,0.0977517032
2274,0.0977517032
2275,0.0977517032
2276,0.0977517032
2277,0.0977517032
2278,0.0977517032
2279,0.0977517032
2280,0.0977517032
2281,0.0879765415
2282,0.0977517032
2283,0.0879765415
2284,0.0879765415
2285,0.0879765415
2286,0.0879765415
2287,0.0879765415
2288,0.0879765415
2289,0.0879765415
2290,0.0879765415
2291,0.0879765415
2292,0.0879765415
2293,0.0879765415
2294,0.0879765415
2295,0.0879765415
2296,0.0879765415
2297,0.0879765415
2298,0.0977517032
2299,0.0879765415
2300,0.0879765415
2301,0.0879765415
2302,0.0879765415
2303,0.0879765415
2304,0.0879765415
2305,0.0879765415
2306,0.0879765415
2307,0.0879765415
2308,0.0879765415
2309,0.0879765415
2310,0.0879765415
2311,0.0879765415
2312,0.0879765415
2313,0.0879765415
2314,0.0879765415
2315,0.0879765415
2316,0.0879765415
2317,0.0879765415
2318,0.0879765415
2319,0.0879765415
2320,0.0782013654
2321,0.0782013654
2322,0.0782013654
2323,0.0782013654
2324,0.0782013654
2325,0.0782013654
2326,0.0782013654
2327,0.0782013654
2328,0.0782013654
2329,0.0782013654
2330,0.0782013654
2331,0.0879765415
2332,0.0782013654
2333,0.0782013654
2334,0.0879765415
2335,0.0879765415
2336,0.0879765415
2337,0.0782013654
2338,0.0782013654
2339,0.0879765415
2340,0.0879765415
2341,0.0879765415
2342,0.0879765415
2343,0.0879765415
2344,0.0879765415
2345,0.0879765415
2346,0.0879765415
2347,0.0879765415
2348,0.0879765415
2349,0.0879765415
2350,0.0879765415
2351,0.0879765415
2352,0.0879765415
2353,0.0879765415
2354,0.0879765415
2355,0.0879765415
2356,0.0879765415
2357,0.0879765415
2358,0.0879765415
2359,0.0879765415
2360,0.0879765415
2361,0.0977517032
2362,0.0977517032
2363,0.0879765415
2364,0.0879765415
2365,0.0879765415
2366,0.0879765415
2367,0.0879765415
2368,0.0879765415
2369,0.0977517032
2370,0.0879765415
2371,0.0879765415
2372,0.0879765415
2373,0.0879765415
2374,0.0879765415
2375,0.0977517032
2376,0.0977517032
2377,0.0879765415
2378,0.0977517032
2379,0.0879765415
2380,0.0977517032
2381,0.0879765415
2382,0.0879765415
2383,0.0977517032
2384,0.0977517032
2385,0.0977517032
2386,0.0977517032
2387,0.0977517032
2388,0.1075268864
2389,0.0977517032
2390,0.0977517032
2391,0.1075268864
2392,0.0977517032
2393,0.0977517032
2394,0.0977517032
2395,0.0977517032
2396,0.0977517032
2397,0.0977517032
2398,0.1075268864
2399,0.1075268864
2400,0.1075268864
2401,0.1075268864
2402,0.0977517032
2403,0.0977517032
2404,0.1075268864
2405,0.1173020482
2406,0.1075268864
2407,0.1075268864
2408,0.0977517032
2409,0.0977517032
2410,0.0977517032
2411,0.0977517032
2412,0.0977517032
2413,0.0977517032
2414,0.0977517032
2415,0.0977517032
2416,0.0977517032
2417,0.0977517032
2418,0.0977517032
2419,0.0977517032
2420,0.0977517032
2421,0.0977517032
2422,0.1075268864
2423,0.1075268864
2424,0.1075268864
2425,0.1075268864
2426,0.1075268864
2427,0.1075268864
2428,0.1075268864
2429,0.1075268864
2430,0.1173020482
2431,0.1173020482
2432,0.1173020482
