0,0.2834799575
1,0.7038123130
2,0.8895405769
3,0.9579667091
4,0.9775171279
5,0.9188660621
6,0.8015640258
7,0.6842619895
8,0.6060606002
9,0.6158357620
10,0.6060606002
11,0.5767350673
12,0.6842619895
13,0.7233626842
14,0.7331378459
15,0.6451612472
16,0.6940371513
17,0.6451612472
18,0.6060606002
19,0.5474095821
20,0.5083088874
21,0.4985337257
22,0.5571847438
23,0.5669599056
24,0.7331378459
25,0.7526881694
26,0.7526881694
27,0.7233626842
28,0.6647116661
29,0.7038123130
30,0.7917888641
31,1.0948191833
32,1.1339198350
33,1.2512218952
34,1.4173997879
35,1.5151515007
36,1.4467253684
37,1.3880742835
38,1.3880742835
39,1.2903225421
40,1.4076246261
41,1.2414467334
42,1.0361680984
43,0.9384163856
44,0.8797654151
45,0.7429130077
46,0.6549364089
47,0.6940371513
48,0.6060606002
49,0.5669599056
50,0.5474095821
51,0.5083088874
52,0.4301075458
53,0.3714565038
54,0.3225806236
55,0.3128054618
56,0.2737047910
57,0.2737047910
58,0.2639296054
59,0.2443792819
60,0.2248289346
61,0.2052785873
62,0.2443792819
63,0.2639296054
64,0.2737047910
65,0.2639296054
66,0.2834799575
67,0.3030303001
68,0.2834799575
69,0.2932551193
70,0.3030303001
71,0.2737047910
72,0.2443792819
73,0.2541544437
74,0.2346040964
75,0.2150537729
76,0.2150537729
77,0.2248289346
78,0.2248289346
79,0.2346040964
80,0.2346040964
81,0.2052785873
82,0.1955034160
83,0.1759530782
84,0.1759530782
85,0.2541544437
86,0.2346040964
87,0.2150537729
88,0.1955034160
89,0.2052785873
90,0.2248289346
91,0.2248289346
92,0.2541544437
93,0.2639296054
94,0.2443792819
95,0.2443792819
96,0.2443792819
97,0.2443792819
98,0.2443792819
99,0.2248289346
100,0.2052785873
101,0.2052785873
102,0.2248289346
103,0.2150537729
104,0.2150537729
105,0.2737047910
106,0.2932551193
107,0.3030303001
108,0.3128054618
109,0.2932551193
110,0.2541544437
111,0.2737047910
112,0.2541544437
113,0.2248289346
114,0.2541544437
115,0.2346040964
116,0.2346040964
117,0.2541544437
118,0.2346040964
119,0.2052785873
120,0.1857282543
121,0.1955034160
122,0.2150537729
123,0.2150537729
124,0.2052785873
125,0.2346040964
126,0.2346040964
127,0.2150537729
128,0.1955034160
129,0.1857282543
130,0.1857282543
131,0.1759530782
132,0.1564027309
133,0.1759530782
134,0.1661779165
135,0.1661779165
136,0.1661779165
137,0.1759530782
138,0.1759530782
139,0.1955034160
140,0.1857282543
141,0.1759530782
142,0.1661779165
143,0.1466275596
144,0.1270772218
145,0.1270772218
146,0.1075268864
147,0.1173020482
148,0.1075268864
149,0.0977517032
150,0.0879765415
151,0.0977517032
152,0.0782013654
153,0.0782013654
154,0.0684261989
155,0.0977517032
156,0.0879765415
157,0.0879765415
158,0.0879765415
159,0.0782013654
160,0.0782013654
161,0.0782013654
162,0.0879765415
163,0.0879765415
164,0.1173020482
165,0.1075268864
166,0.1075268864
167,0.0977517032
168,0.0977517032
169,0.0977517032
170,0.0879765415
171,0.0879765415
172,0.0782013654
173,0.0782013654
174,0.0782013654
175,0.0684261989
176,0.0684261989
177,0.0684261989
178,0.0684261989
179,0.0684261989
180,0.0586510229
181,0.0488758516
182,0.0488758516
183,0.0586510229
184,0.0684261989
185,0.0684261989
186,0.0684261989
187,0.0586510229
188,0.0488758516
189,0.0488758516
190,0.0488758516
191,0.0782013654
192,0.0977517032
193,0.0879765415
194,0.0782013654
195,0.0782013654
196,0.0684261989
197,0.0586510229
198,0.0586510229
199,0.0488758516
200,0.0488758516
201,0.0586510229
202,0.0684261989
203,0.0586510229
204,0.0586510229
205,0.0586510229
206,0.0586510229
207,0.0684261989
208,0.0684261989
209,0.0586510229
210,0.0391006832
211,0.0293255119
212,0.0293255119
213,0.0293255119
214,0.0293255119
215,0.0293255119
216,0.0293255119
217,0.0293255119
218,0.0293255119
219,0.0391006832
220,0.0293255119
221,0.0293255119
222,0.0195503416
223,0.0195503416
224,0.0195503416
225,0.0195503416
226,0.0293255119
227,0.0293255119
228,0.0293255119
229,0.0293255119
230,0.0293255119
231,0.0391006832
232,0.0391006832
233,0.0391006832
234,0.0391006832
235,0.0488758516
236,0.0391006832
237,0.0391006832
238,0.0293255119
239,0.0293255119
240,0.0293255119
241,0.0293255119
242,0.0195503416
243,0.0195503416
244,0.0195503416
245,0.0195503416
246,0.0195503416
247,0.0195503416
248,0.0293255119
249,0.0195503416
250,0.0195503416
251,0.0195503416
252,0.0195503416
253,0.0195503416
254,0.0195503416
255,0.0195503416
256,0.0195503416
257,0.0195503416
258,0.0293255119
259,0.0293255119
260,0.0293255119
261,0.0293255119
262,0.0293255119
263,0.0293255119
264,0.0293255119
265,0.0293255119
266,0.0293255119
267,0.0195503416
268,0.0195503416
269,0.0293255119
270,0.0293255119
271,0.0293255119
272,0.0195503416
273,0.0293255119
274,0.0293255119
275,0.0195503416
276,0.0195503416
277,0.0293255119
278,0.0293255119
279,0.0293255119
280,0.0293255119
281,0.0293255119
282,0.0293255119
283,0.0293255119
284,0.0293255119
285,0.0293255119
286,0.0391006832
287,0.0293255119
288,0.0293255119
289,0.0195503416
290,0.0293255119
291,0.0195503416
292,0.0195503416
293,0.0195503416
294,0.0195503416
295,0.0195503416
296,0.0195503416
297,0.0195503416
298,0.0195503416
299,0.0293255119
300,0.0293255119
301,0.0293255119
302,0.0293255119
303,0.0293255119
304,0.0293255119
305,0.0195503416
306,0.0293255119
307,0.0195503416
308,0.0195503416
309,0.0293255119
310,0.0293255119
311,0.0293255119
312,0.0293255119
313,0.0293255119
314,0.0293255119
315,0.0293255119
316,0.0293255119
317,0.0293255119
318,0.0293255119
319,0.0293255119
320,0.0293255119
321,0.0195503416
322,0.0195503416
323,0.0195503416
324,0.0195503416
325,0.0195503416
326,0.0195503416
327,0.0195503416
328,0.0195503416
329,0.0195503416
330,0.0293255119
331,0.0195503416
332,0.0195503416
333,0.0195503416
334,0.0195503416
335,0.0195503416
336,0.0195503416
337,0.0195503416
338,0.0195503416
339,0.0195503416
340,0.0195503416
341,0.0195503416
342,0.0195503416
343,0.0195503416
344,0.0293255119
345,0.0195503416
346,0.0195503416
347,0.0293255119
348,0.0293255119
349,0.0391006832
350,0.0488758516
351,0.0879765415
352,0.1075268864
353,0.1270772218
354,0.1173020482
355,0.1368523955
356,0.1368523955
357,0.1368523955
358,0.1661779165
359,0.2052785873
360,0.2639296054
361,0.2932551193
362,0.2834799575
363,0.2737047910
364,0.2639296054
365,0.2541544437
366,0.2346040964
367,0.2346040964
368,0.2443792819
369,0.2932551193
370,0.3128054618
371,0.3421309947
372,0.3714565038
373,0.3812316703
374,0.4692081928
375,0.4789833545
376,0.4594330310
377,0.4887585639
378,0.4594330310
379,0.4985337257
380,0.4594330310
381,0.4692081928
382,0.4985337257
383,0.5571847438
384,0.5962854385
385,0.7135874748
386,0.6940371513
387,0.6842619895
388,0.6744868278
389,0.8993157386
390,0.7722384929
391,0.6842619895
392,0.7135874748
393,0.7722384929
394,0.7429130077
395,0.8993157386
396,0.9872922897
397,0.9775171279
398,0.9481915473
399,0.9090909004
400,0.8797654151
401,0.8797654151
402,0.8895405769
403,0.8504399299
404,0.7722384929
405,0.6842619895
406,0.5962854385
407,0.5180840492
408,0.4301075458
409,0.3812316703
410,0.3812316703
411,0.3421309947
412,0.3128054618
413,0.3812316703
414,0.4105571746
415,0.3714565038
416,0.3910068321
417,0.3421309947
418,0.3225806236
419,0.3225806236
420,0.3323558330
421,0.3128054618
422,0.3225806236
423,0.3030303001
424,0.2932551193
425,0.2932551193
426,0.2834799575
427,0.2834799575
428,0.2834799575
429,0.2639296054
430,0.2443792819
431,0.2639296054
432,0.2639296054
433,0.2346040964
434,0.2346040964
435,0.2150537729
436,0.2346040964
437,0.2541544437
438,0.2443792819
439,0.2541544437
440,0.2150537729
441,0.2052785873
442,0.2052785873
443,0.2248289346
444,0.2150537729
445,0.2346040964
446,0.2737047910
447,0.2639296054
448,0.2639296054
449,0.2737047910
450,0.2639296054
451,0.2639296054
452,0.2834799575
453,0.2541544437
454,0.2639296054
455,0.2346040964
456,0.2639296054
457,0.2639296054
458,0.3128054618
459,0.3225806236
460,0.3030303001
461,0.2932551193
462,0.2834799575
463,0.2737047910
464,0.2639296054
465,0.2737047910
466,0.2639296054
467,0.2443792819
468,0.2443792819
469,0.2639296054
470,0.2346040964
471,0.2150537729
472,0.2248289346
473,0.2150537729
474,0.1955034160
475,0.1759530782
476,0.1857282543
477,0.1857282543
478,0.2248289346
479,0.2248289346
480,0.2150537729
481,0.2150537729
482,0.1955034160
483,0.2052785873
484,0.1955034160
485,0.1857282543
486,0.1955034160
487,0.1955034160
488,0.1955034160
489,0.2150537729
490,0.1955034160
491,0.1759530782
492,0.1857282543
493,0.1759530782
494,0.1466275596
495,0.1368523955
496,0.1270772218
497,0.1368523955
498,0.1564027309
499,0.1466275596
500,0.1270772218
501,0.1173020482
502,0.1075268864
503,0.0977517032
504,0.0879765415
505,0.0879765415
506,0.0879765415
507,0.0879765415
508,0.0879765415
509,0.0782013654
510,0.0782013654
511,0.0684261989
512,0.0684261989
513,0.0586510229
514,0.0586510229
515,0.0391006832
516,0.0391006832
517,0.0488758516
518,0.0586510229
519,0.0586510229
520,0.0488758516
521,0.0488758516
522,0.0488758516
523,0.0488758516
524,0.0488758516
525,0.0391006832
526,0.0391006832
527,0.0391006832
528,0.0391006832
529,0.0586510229
530,0.0879765415
531,0.0879765415
532,0.0879765415
533,0.0782013654
534,0.0684261989
535,0.0586510229
536,0.0586510229
537,0.0586510229
538,0.0586510229
539,0.0586510229
540,0.0586510229
541,0.0488758516
542,0.0488758516
543,0.0391006832
544,0.0391006832
545,0.0391006832
546,0.0391006832
547,0.0293255119
548,0.0391006832
549,0.0293255119
550,0.0293255119
551,0.0293255119
552,0.0391006832
553,0.0391006832
554,0.0586510229
555,0.0586510229
556,0.0488758516
557,0.0391006832
558,0.0488758516
559,0.0391006832
560,0.0293255119
561,0.0391006832
562,0.0293255119
563,0.0293255119
564,0.0195503416
565,0.0195503416
566,0.0195503416
567,0.0195503416
568,0.0293255119
569,0.0293255119
570,0.0293255119
571,0.0000000000
572,0.0000000000
573,0.0000000000
574,0.0000000000
575,0.0684261989
576,0.0000000000
577,0.5669599056
578,1.5933528900
579,0.0000000000
580,0.0000000000
581,0.0000000000
582,0.0000000000
583,0.0000000000
584,0.0000000000
585,0.0097751703
586,2.0821113586
587,0.0293255119
588,0.0293255119
589,0.0293255119
590,0.0293255119
591,0.0391006832
592,0.0391006832
593,0.0293255119
594,0.0293255119
595,0.0293255119
596,0.0293255119
597,0.0195503416
598,0.0195503416
599,0.0097751703
600,0.0195503416
601,0.0195503416
602,0.0195503416
603,0.0195503416
604,0.0293255119
605,0.0391006832
606,0.0586510229
607,0.0586510229
608,0.0586510229
609,0.0684261989
610,0.0684261989
611,0.0586510229
612,0.0586510229
613,0.0586510229
614,0.0488758516
615,0.0391006832
616,0.0391006832
617,0.0293255119
618,0.0391006832
619,0.0391006832
620,0.0293255119
621,0.0195503416
622,0.0195503416
623,0.0195503416
624,0.0097751703
625,0.0097751703
626,0.0097751703
627,0.0097751703
628,0.0000000000
629,0.0000000000
630,0.0000000000
631,0.0000000000
632,0.0000000000
633,0.0097751703
634,0.0097751703
635,0.0097751703
636,0.0097751703
637,0.0097751703
638,0.0000000000
639,0.0097751703
640,0.0097751703
641,0.0097751703
642,0.0195503416
643,0.0293255119
644,0.0293255119
645,0.0195503416
646,0.0195503416
647,0.0195503416
648,0.0195503416
649,0.0195503416
650,0.0195503416
651,0.0195503416
652,0.0195503416
653,0.0097751703
654,0.0097751703
655,0.0097751703
656,0.0097751703
657,0.0000000000
658,0.0000000000
659,0.0000000000
660,0.0000000000
661,0.0097751703
662,0.0097751703
663,0.0097751703
664,0.0097751703
665,0.0097751703
666,0.0097751703
667,0.0097751703
668,0.0000000000
669,0.0000000000
670,0.0000000000
671,0.0000000000
672,0.0000000000
673,0.0000000000
674,0.0000000000
675,0.0000000000
676,0.0000000000
677,0.0000000000
678,0.0000000000
679,0.0000000000
680,0.0000000000
681,0.0000000000
682,0.0000000000
683,0.0000000000
684,0.0000000000
685,0.0000000000
686,0.0000000000
687,0.0000000000
688,0.0000000000
689,0.0000000000
690,0.0000000000
691,0.0000000000
692,0.0000000000
693,0.0000000000
694,0.0000000000
695,0.0000000000
696,0.0000000000
697,0.0000000000
698,0.0000000000
699,0.0000000000
700,0.0000000000
701,0.0000000000
702,0.0000000000
703,0.0000000000
704,0.0000000000
705,0.0000000000
706,0.0097751703
707,0.0097751703
708,0.0097751703
709,0.0097751703
710,0.0195503416
711,0.0195503416
712,0.0195503416
713,0.0293255119
714,0.0391006832
715,0.0391006832
716,0.0488758516
717,0.0488758516
718,0.0488758516
719,0.0488758516
720,0.0586510229
721,0.0586510229
722,0.0586510229
723,0.0684261989
724,0.0977517032
725,0.0879765415
726,0.0879765415
727,0.1173020482
728,0.1270772218
729,0.1368523955
730,0.1270772218
731,0.1270772218
732,0.1173020482
733,0.1270772218
734,0.1368523955
735,0.1759530782
736,0.1857282543
737,0.1661779165
738,0.1955034160
739,0.1857282543
740,0.2052785873
741,0.1955034160
742,0.2346040964
743,0.2737047910
744,0.2834799575
745,0.2932551193
746,0.3030303001
747,0.3030303001
748,0.3128054618
749,0.3421309947
750,0.3421309947
751,0.3519061565
752,0.4105571746
753,0.5669599056
754,0.5571847438
755,0.5180840492
756,0.4985337257
757,0.5571847438
758,0.5278592109
759,0.6158357620
760,0.7135874748
761,0.8308895111
762,0.9188660621
763,0.8797654151
764,0.7722384929
765,0.7624633312
766,0.7331378459
767,0.7526881694
768,0.7526881694
769,0.6940371513
770,0.6158357620
771,0.5571847438
772,0.5180840492
773,0.4692081928
774,0.4007820129
775,0.3910068321
776,0.3519061565
777,0.3421309947
778,0.3323558330
779,0.3421309947
780,0.3128054618
781,0.2737047910
782,0.2541544437
783,0.2150537729
784,0.2150537729
785,0.2052785873
786,0.1857282543
787,0.1759530782
788,0.1661779165
789,0.1661779165
790,0.1466275596
791,0.1466275596
792,0.1368523955
793,0.1368523955
794,0.1270772218
795,0.1270772218
796,0.1270772218
797,0.1270772218
798,0.1173020482
799,0.1075268864
800,0.1270772218
801,0.1173020482
802,0.1270772218
803,0.1368523955
804,0.1270772218
805,0.1173020482
806,0.1270772218
807,0.1270772218
808,0.1466275596
809,0.1466275596
810,0.1368523955
811,0.1564027309
812,0.1466275596
813,0.1368523955
814,0.1270772218
815,0.1368523955
816,0.1270772218
817,0.1173020482
818,0.1270772218
819,0.1270772218
820,0.1270772218
821,0.1173020482
822,0.1173020482
823,0.1368523955
824,0.1661779165
825,0.1466275596
826,0.1368523955
827,0.1270772218
828,0.1075268864
829,0.1173020482
830,0.1173020482
831,0.1173020482
832,0.1173020482
833,0.1173020482
834,0.1075268864
835,0.0977517032
836,0.0879765415
837,0.0879765415
838,0.0782013654
839,0.0879765415
840,0.0879765415
841,0.0879765415
842,0.1075268864
843,0.0977517032
844,0.0879765415
845,0.0879765415
846,0.1075268864
847,0.1270772218
848,0.0977517032
849,0.0879765415
850,0.0879765415
851,0.0879765415
852,0.0782013654
853,0.0684261989
854,0.0586510229
855,0.0684261989
856,0.0782013654
857,0.0782013654
858,0.0782013654
859,0.0684261989
860,0.0879765415
861,0.0782013654
862,0.0782013654
863,0.0684261989
864,0.0586510229
865,0.0488758516
866,0.0488758516
867,0.0391006832
868,0.0391006832
869,0.0293255119
870,0.0293255119
871,0.0293255119
872,0.0293255119
873,0.0293255119
874,0.0488758516
875,0.0488758516
876,0.0391006832
877,0.0391006832
878,0.0391006832
879,0.0391006832
880,0.0391006832
881,0.0391006832
882,0.0293255119
883,0.0293255119
884,0.0195503416
885,0.0195503416
886,0.0097751703
887,0.0097751703
888,0.0097751703
889,0.0097751703
890,0.0000000000
891,0.0097751703
892,0.0000000000
893,0.0000000000
894,0.0000000000
895,0.0097751703
896,0.0097751703
897,0.0000000000
898,0.0000000000
899,0.0000000000
900,0.0000000000
901,0.0000000000
902,0.0000000000
903,0.0000000000
904,0.0000000000
905,0.0000000000
906,0.0000000000
907,0.0000000000
908,0.0000000000
909,0.0000000000
910,0.0000000000
911,0.0000000000
912,0.0000000000
913,0.0000000000
914,0.0000000000
915,0.0000000000
916,0.0000000000
917,0.0000000000
918,0.0000000000
919,0.0000000000
920,0.0000000000
921,0.0000000000
922,0.0000000000
923,0.0000000000
924,0.0000000000
925,0.0000000000
926,0.0000000000
927,0.0000000000
928,0.0000000000
929,0.0000000000
930,0.0000000000
931,0.0000000000
932,0.0000000000
933,0.0000000000
934,0.0000000000
935,0.0000000000
936,0.0000000000
937,0.0000000000
938,0.0000000000
939,0.0000000000
940,0.0000000000
941,0.0000000000
942,0.0000000000
943,0.0000000000
944,0.0000000000
945,0.0000000000
946,0.0000000000
947,0.0000000000
948,0.0000000000
949,0.0000000000
950,0.0000000000
951,0.0000000000
952,0.0000000000
953,0.0000000000
954,0.0000000000
955,0.0000000000
956,0.0000000000
957,0.0000000000
958,0.0000000000
959,0.0000000000
960,0.0000000000
961,0.0000000000
962,0.0000000000
963,0.0000000000
964,0.0000000000
965,0.0000000000
966,0.0000000000
967,0.0000000000
968,0.0000000000
969,0.0000000000
970,0.0000000000
971,0.0000000000
972,0.0000000000
973,0.0000000000
974,0.0000000000
975,0.0000000000
976,0.0000000000
977,0.0000000000
978,0.0000000000
979,0.0000000000
980,0.0000000000
981,0.0000000000
982,0.0000000000
983,0.0000000000
984,0.0000000000
985,0.0000000000
986,0.0000000000
987,0.0000000000
988,0.0000000000
989,0.0000000000
990,0.0000000000
991,0.0000000000
992,0.0000000000
993,0.0000000000
994,0.0000000000
995,0.0000000000
996,0.0000000000
997,0.0000000000
998,0.0000000000
999,0.0000000000
1000,0.0097751703
1001,0.7624633312
1002,0.6353860855
1003,0.5278592109
1004,0.4398827075
1005,0.3616813421
1006,0.3030303001
1007,0.2737047910
1008,0.2248289346
1009,0.1955034160
1010,0.1564027309
1011,0.1368523955
1012,0.1270772218
1013,0.1173020482
1014,0.0977517032
1015,0.0977517032
1016,0.0977517032
1017,0.0977517032
1018,0.1075268864
1019,0.1075268864
1020,0.1075268864
1021,0.0879765415
1022,0.0782013654
1023,0.0879765415
1024,0.0977517032
1025,0.0879765415
1026,0.0782013654
1027,0.0977517032
1028,0.0879765415
1029,0.1075268864
1030,0.1173020482
1031,0.1075268864
1032,0.1270772218
1033,0.1075268864
1034,0.1075268864
1035,0.1075268864
1036,0.0977517032
1037,0.0782013654
1038,0.0782013654
1039,0.0879765415
1040,0.0879765415
1041,0.0782013654
1042,0.0684261989
1043,0.0879765415
1044,0.0977517032
1045,0.0879765415
1046,0.0977517032
1047,0.0879765415
1048,0.0879765415
1049,0.0879765415
1050,0.0782013654
1051,0.0782013654
1052,0.0684261989
1053,0.0586510229
1054,0.0586510229
1055,0.0586510229
1056,0.0391006832
1057,0.0293255119
1058,0.0293255119
1059,0.0293255119
1060,0.0195503416
1061,0.0097751703
1062,0.0097751703
1063,0.0097751703
1064,0.0097751703
1065,0.0097751703
1066,0.0097751703
1067,0.0097751703
1068,0.0097751703
1069,0.0000000000
1070,0.0000000000
1071,0.0097751703
1072,0.0097751703
1073,0.0097751703
1074,0.0000000000
1075,0.0097751703
1076,0.0097751703
1077,0.0195503416
1078,0.0195503416
1079,0.0195503416
1080,0.0195503416
1081,0.0195503416
1082,0.0195503416
1083,0.0195503416
1084,0.0293255119
1085,0.0293255119
1086,0.0195503416
1087,0.0293255119
1088,0.0293255119
1089,0.0293255119
1090,0.0293255119
1091,0.0195503416
1092,0.0195503416
1093,0.0195503416
1094,0.0293255119
1095,0.0293255119
1096,0.0195503416
1097,0.0195503416
1098,0.0097751703
1099,0.0097751703
1100,0.0195503416
1101,0.0195503416
1102,0.0097751703
1103,0.0097751703
1104,0.0195503416
1105,0.0195503416
1106,0.0097751703
1107,0.0097751703
1108,0.0097751703
1109,0.0097751703
1110,0.0097751703
1111,0.0097751703
1112,0.0097751703
1113,0.0000000000
1114,0.0000000000
1115,0.0000000000
1116,0.0000000000
1117,0.0000000000
1118,0.0000000000
1119,0.0000000000
1120,0.0000000000
1121,0.0000000000
1122,0.0097751703
1123,0.0097751703
1124,0.0097751703
1125,0.0000000000
1126,0.0097751703
1127,0.0097751703
1128,0.0000000000
1129,0.0000000000
1130,0.0000000000
1131,0.0000000000
1132,0.0000000000
1133,0.0000000000
1134,0.0000000000
1135,0.0000000000
1136,0.0000000000
1137,0.0000000000
1138,0.0000000000
1139,0.0000000000
1140,0.0000000000
1141,0.0000000000
1142,0.0000000000
1143,0.0000000000
1144,0.0000000000
1145,0.0000000000
1146,0.0000000000
1147,0.0000000000
1148,0.0000000000
1149,0.0000000000
1150,0.0000000000
1151,0.0000000000
1152,0.0000000000
1153,0.0000000000
1154,0.0000000000
1155,0.0000000000
1156,0.0000000000
1157,0.0000000000
1158,0.0000000000
1159,0.0000000000
1160,0.0000000000
1161,0.0000000000
1162,0.0000000000
1163,0.0000000000
1164,0.0000000000
1165,0.0000000000
1166,0.0000000000
1167,0.0000000000
1168,0.0000000000
1169,0.0000000000
1170,0.0000000000
1171,0.0000000000
1172,0.0000000000
1173,0.0000000000
1174,0.0000000000
1175,0.0000000000
1176,0.0000000000
1177,0.0000000000
1178,0.0000000000
1179,0.0000000000
1180,0.0000000000
1181,0.0000000000
1182,0.0000000000
1183,0.0000000000
1184,0.0000000000
1185,0.0000000000
1186,0.0000000000
1187,0.0000000000
1188,0.0000000000
1189,0.0000000000
1190,0.0000000000
1191,0.0000000000
1192,0.0000000000
1193,0.0000000000
1194,0.0000000000
1195,0.0000000000
1196,0.0000000000
1197,0.0000000000
1198,0.0000000000
1199,0.0000000000
1200,0.0000000000
1201,0.0000000000
1202,0.0000000000
1203,0.0000000000
1204,0.0000000000
1205,0.0000000000
1206,0.0000000000
1207,0.0000000000
1208,0.0000000000
1209,0.0000000000
1210,0.0000000000
1211,0.0000000000
1212,0.0000000000
1213,0.0000000000
1214,0.0000000000
1215,0.0000000000
1216,0.0000000000
1217,0.0000000000
1218,0.0000000000
1219,0.0000000000
1220,0.0000000000
1221,0.0000000000
1222,0.0000000000
1223,0.0000000000
1224,0.0000000000
1225,0.0000000000
1226,0.0000000000
1227,0.0000000000
1228,0.0000000000
1229,0.0000000000
1230,0.0000000000
1231,0.0000000000
1232,0.0000000000
1233,0.0000000000
1234,0.0000000000
1235,0.0000000000
1236,0.0000000000
1237,0.0000000000
1238,0.0000000000
1239,0.0000000000
1240,0.0000000000
1241,0.0000000000
1242,0.0000000000
1243,0.0000000000
1244,0.0000000000
1245,0.0097751703
1246,0.0097751703
1247,0.0195503416
1248,0.0195503416
1249,0.0293255119
1250,0.0195503416
1251,0.0195503416
1252,0.0293255119
1253,0.0293255119
1254,0.0391006832
1255,0.0586510229
1256,0.0586510229
1257,0.0586510229
1258,0.0488758516
1259,0.0684261989
1260,0.0782013654
1261,0.1075268864
1262,0.0977517032
1263,0.0977517032
1264,0.0977517032
1265,0.0879765415
1266,0.0977517032
1267,0.0879765415
1268,0.1270772218
1269,0.1270772218
1270,0.1270772218
1271,0.1759530782
1272,0.1661779165
1273,0.1759530782
1274,0.2052785873
1275,0.2052785873
1276,0.1857282543
1277,0.1661779165
1278,0.1564027309
1279,0.1759530782
1280,0.1955034160
1281,0.2443792819
1282,0.2443792819
1283,0.2443792819
1284,0.2639296054
1285,0.3030303001
1286,0.2932551193
1287,0.2932551193
1288,0.3030303001
1289,0.2834799575
1290,0.3030303001
1291,0.2834799575
1292,0.2443792819
1293,0.2932551193
1294,0.4007820129
1295,0.4203323364
1296,0.4789833545
1297,0.4594330310
1298,0.4398827075
1299,0.4692081928
1300,0.5474095821
1301,0.5278592109
1302,0.6060606002
1303,0.6158357620
1304,0.6158357620
1305,0.5865102291
1306,0.5180840492
1307,0.4789833545
1308,0.4301075458
1309,0.3714565038
1310,0.3225806236
1311,0.2737047910
1312,0.2443792819
1313,0.2346040964
1314,0.2052785873
1315,0.1759530782
1316,0.1661779165
1317,0.1564027309
1318,0.1466275596
1319,0.1270772218
1320,0.1270772218
1321,0.1075268864
1322,0.0977517032
1323,0.1270772218
1324,0.1270772218
1325,0.1173020482
1326,0.1075268864
1327,0.1270772218
1328,0.1075268864
1329,0.0879765415
1330,0.1075268864
1331,0.0977517032
1332,0.0977517032
1333,0.1075268864
1334,0.1173020482
1335,0.1270772218
1336,0.1173020482
1337,0.1173020482
1338,0.1173020482
1339,0.1270772218
1340,0.1173020482
1341,0.1173020482
1342,0.1173020482
1343,0.1075268864
1344,0.0879765415
1345,0.0782013654
1346,0.0782013654
1347,0.0782013654
1348,0.0782013654
1349,0.0879765415
1350,0.0879765415
1351,0.0977517032
1352,0.1075268864
1353,0.1075268864
1354,0.1075268864
1355,0.0977517032
1356,0.0977517032
1357,0.0879765415
1358,0.0977517032
1359,0.0879765415
1360,0.0879765415
1361,0.0977517032
1362,0.0879765415
1363,0.0782013654
1364,0.0879765415
1365,0.0879765415
1366,0.0879765415
1367,0.0782013654
1368,0.0879765415
1369,0.0879765415
1370,0.0977517032
1371,0.1173020482
1372,0.1075268864
1373,0.0977517032
1374,0.0879765415
1375,0.0684261989
1376,0.0684261989
1377,0.0782013654
1378,0.0684261989
1379,0.0684261989
1380,0.0684261989
1381,0.0684261989
1382,0.0586510229
1383,0.0586510229
1384,0.0586510229
1385,0.0586510229
1386,0.0586510229
1387,0.0488758516
1388,0.0488758516
1389,0.0488758516
1390,0.0488758516
1391,0.0391006832
1392,0.0391006832
1393,0.0293255119
1394,0.0391006832
1395,0.0391006832
1396,0.0488758516
1397,0.0488758516
1398,0.0488758516
1399,0.0586510229
1400,0.0684261989
1401,0.0782013654
1402,0.0684261989
1403,0.0782013654
1404,0.0684261989
1405,0.0684261989
1406,0.0586510229
1407,0.0782013654
1408,0.0879765415
1409,0.0782013654
1410,0.0879765415
1411,0.0684261989
1412,0.0684261989
1413,0.0488758516
1414,0.0586510229
1415,0.0586510229
1416,0.0488758516
1417,0.0488758516
1418,0.0586510229
1419,0.0488758516
1420,0.0391006832
1421,0.0391006832
1422,0.0391006832
1423,0.0391006832
1424,0.0488758516
1425,0.0488758516
1426,0.0488758516
1427,0.0488758516
1428,0.0488758516
1429,0.0391006832
1430,0.0391006832
1431,0.0293255119
1432,0.0293255119
1433,0.0195503416
1434,0.0293255119
1435,0.0293255119
1436,0.0293255119
1437,0.0293255119
1438,0.0293255119
1439,0.0391006832
1440,0.0391006832
1441,0.0293255119
1442,0.0391006832
1443,0.0488758516
1444,0.0488758516
1445,0.0488758516
1446,0.0391006832
1447,0.0293255119
1448,0.0293255119
1449,0.0293255119
1450,0.0195503416
1451,0.0195503416
1452,0.0097751703
1453,0.0195503416
1454,0.0293255119
1455,0.0293255119
1456,0.0391006832
1457,0.0586510229
1458,0.1075268864
1459,0.1173020482
1460,0.1173020482
1461,0.1173020482
1462,0.1270772218
1463,0.1564027309
1464,0.2346040964
1465,0.2248289346
1466,0.2737047910
1467,0.2834799575
1468,0.2248289346
1469,0.1955034160
1470,0.1564027309
1471,0.1368523955
1472,0.1075268864
1473,0.0977517032
1474,0.0879765415
1475,0.0879765415
1476,0.0782013654
1477,0.0684261989
1478,0.0488758516
1479,0.0488758516
1480,0.0586510229
1481,0.0488758516
1482,0.0586510229
1483,0.0488758516
1484,0.0391006832
1485,0.0293255119
1486,0.0293255119
1487,0.0293255119
1488,0.0391006832
1489,0.0293255119
1490,0.0293255119
1491,0.0195503416
1492,0.0195503416
1493,0.0195503416
1494,0.0293255119
1495,0.0391006832
1496,0.0391006832
1497,0.0391006832
1498,0.0391006832
1499,0.0488758516
1500,0.0488758516
1501,0.0391006832
1502,0.0391006832
1503,0.0488758516
1504,0.0488758516
1505,0.0488758516
1506,0.0391006832
1507,0.0391006832
1508,0.0488758516
1509,0.0488758516
1510,0.0391006832
1511,0.0488758516
1512,0.0488758516
1513,0.0586510229
1514,0.0684261989
1515,0.0684261989
1516,0.0586510229
1517,0.0586510229
1518,0.0684261989
1519,0.0879765415
1520,0.0879765415
1521,0.0684261989
1522,0.0586510229
1523,0.0586510229
1524,0.0586510229
1525,0.0684261989
1526,0.0684261989
1527,0.0684261989
1528,0.0586510229
1529,0.0488758516
1530,0.0488758516
1531,0.0488758516
1532,0.0586510229
1533,0.0488758516
1534,0.0391006832
1535,0.0391006832
1536,0.0293255119
1537,0.0293255119
1538,0.0195503416
1539,0.0195503416
1540,0.0097751703
1541,0.0195503416
1542,0.0195503416
1543,0.0097751703
1544,0.0195503416
1545,0.0097751703
1546,0.0097751703
1547,0.0097751703
1548,0.0000000000
1549,0.0000000000
1550,0.0000000000
1551,0.0000000000
1552,0.0097751703
1553,0.0097751703
1554,0.0195503416
1555,0.0195503416
1556,0.0195503416
1557,0.0195503416
1558,0.0097751703
1559,0.0097751703
1560,0.0097751703
1561,0.0097751703
1562,0.0097751703
1563,0.0097751703
1564,0.0097751703
1565,0.0000000000
1566,0.0000000000
1567,0.0097751703
1568,0.0000000000
1569,0.0000000000
1570,0.0000000000
1571,0.0000000000
1572,0.0000000000
1573,0.0000000000
1574,0.0000000000
1575,0.0000000000
1576,0.0000000000
1577,0.0000000000
1578,0.0000000000
1579,0.0000000000
1580,0.0000000000
1581,0.0000000000
1582,0.0000000000
1583,0.0000000000
1584,0.0000000000
1585,0.0097751703
1586,0.0195503416
1587,0.0293255119
1588,0.0488758516
1589,0.0488758516
1590,0.0488758516
1591,0.0488758516
1592,0.0488758516
1593,0.0684261989
1594,0.0586510229
1595,0.0782013654
1596,0.0977517032
1597,0.1173020482
1598,0.1270772218
1599,0.1173020482
1600,0.1075268864
1601,0.1173020482
1602,0.1173020482
1603,0.1368523955
1604,0.1466275596
1605,0.1857282543
1606,0.1955034160
1607,0.1955034160
1608,0.2346040964
1609,0.2541544437
1610,0.2443792819
1611,0.2346040964
1612,0.2248289346
1613,0.2248289346
1614,0.2052785873
1615,0.1955034160
1616,0.2443792819
1617,0.2834799575
1618,0.2541544437
1619,0.2346040964
1620,0.2834799575
1621,0.2737047910
1622,0.2346040964
1623,0.2639296054
1624,0.2639296054
1625,0.3030303001
1626,0.2639296054
1627,0.2248289346
1628,0.2052785873
1629,0.2834799575
1630,0.3128054618
1631,0.3128054618
1632,0.3421309947
1633,0.3714565038
1634,0.4105571746
1635,0.4007820129
1636,0.3910068321
1637,0.3910068321
1638,0.3910068321
1639,0.4301075458
1640,0.4594330310
1641,0.5376344203
1642,0.5278592109
1643,0.4496578693
1644,0.4203323364
1645,0.4105571746
1646,0.3812316703
1647,0.3616813421
1648,0.3225806236
1649,0.3128054618
1650,0.2737047910
1651,0.2346040964
1652,0.2052785873
1653,0.1759530782
1654,0.1466275596
1655,0.1368523955
1656,0.1173020482
1657,0.1075268864
1658,0.0977517032
1659,0.0977517032
1660,0.0977517032
1661,0.0879765415
1662,0.0879765415
1663,0.0782013654
1664,0.0879765415
1665,0.0879765415
1666,0.0782013654
1667,0.0782013654
1668,0.0782013654
1669,0.0782013654
1670,0.0684261989
1671,0.0684261989
1672,0.0782013654
1673,0.0684261989
1674,0.0684261989
1675,0.1075268864
1676,0.0977517032
1677,0.0879765415
1678,0.0782013654
1679,0.0782013654
1680,0.0879765415
1681,0.1075268864
1682,0.0879765415
1683,0.0782013654
1684,0.0879765415
1685,0.0879765415
1686,0.0879765415
1687,0.1075268864
1688,0.1075268864
1689,0.0977517032
1690,0.0977517032
1691,0.0977517032
1692,0.0977517032
1693,0.0977517032
1694,0.1075268864
1695,0.1075268864
1696,0.1075268864
1697,0.0879765415
1698,0.0879765415
1699,0.0977517032
1700,0.0879765415
1701,0.0684261989
1702,0.0879765415
1703,0.1075268864
1704,0.0977517032
1705,0.0879765415
1706,0.0977517032
1707,0.1075268864
1708,0.0879765415
1709,0.0782013654
1710,0.0977517032
1711,0.0977517032
1712,0.0977517032
1713,0.0879765415
1714,0.0782013654
1715,0.0879765415
1716,0.0977517032
1717,0.0879765415
1718,0.0879765415
1719,0.0977517032
1720,0.0977517032
1721,0.0782013654
1722,0.0684261989
1723,0.0684261989
1724,0.0684261989
1725,0.0586510229
1726,0.0488758516
1727,0.0391006832
1728,0.0391006832
1729,0.0586510229
1730,0.0488758516
1731,0.0391006832
1732,0.0391006832
1733,0.0391006832
1734,0.0488758516
1735,0.0586510229
1736,0.0391006832
1737,0.0391006832
1738,0.0391006832
1739,0.0391006832
1740,0.0293255119
1741,0.0195503416
1742,0.0195503416
1743,0.0195503416
1744,0.0097751703
1745,0.0097751703
1746,0.0097751703
1747,0.0195503416
1748,0.0097751703
1749,0.0097751703
1750,0.0097751703
1751,0.0097751703
1752,0.0097751703
1753,0.0097751703
1754,0.0097751703
1755,0.0000000000
1756,0.0000000000
1757,0.0097751703
1758,0.0097751703
1759,0.0000000000
1760,0.0000000000
1761,0.0000000000
1762,0.0097751703
1763,0.0000000000
1764,0.0000000000
1765,0.0097751703
1766,0.0097751703
1767,0.0097751703
1768,0.0097751703
1769,0.0195503416
1770,0.0097751703
1771,0.0097751703
1772,0.0097751703
1773,0.0097751703
1774,0.0097751703
1775,0.0097751703
1776,0.0097751703
1777,0.0097751703
1778,0.0000000000
1779,0.0097751703
1780,0.0097751703
1781,0.0097751703
1782,0.0097751703
1783,0.0097751703
1784,0.0097751703
1785,0.0097751703
1786,0.0195503416
1787,0.0488758516
1788,0.0684261989
1789,0.0782013654
1790,0.0684261989
1791,0.0684261989
1792,0.0782013654
1793,0.0586510229
1794,0.0488758516
1795,0.0391006832
1796,0.0488758516
1797,0.0488758516
1798,0.0488758516
1799,0.0293255119
1800,0.0293255119
1801,0.0293255119
1802,0.0195503416
1803,0.0195503416
1804,0.0097751703
1805,0.0097751703
1806,0.0195503416
1807,0.0097751703
1808,0.0097751703
1809,0.0097751703
1810,0.0097751703
1811,0.0195503416
1812,0.0097751703
1813,0.0097751703
1814,0.0195503416
1815,0.0195503416
1816,0.0195503416
1817,0.0195503416
1818,0.0195503416
1819,0.0195503416
1820,0.0195503416
1821,0.0195503416
1822,0.0195503416
1823,0.0097751703
1824,0.0195503416
1825,0.0097751703
1826,0.0097751703
1827,0.0097751703
1828,0.0097751703
1829,0.0097751703
1830,0.0097751703
1831,0.0097751703
1832,0.0293255119
1833,0.0488758516
1834,0.0488758516
1835,0.0488758516
1836,0.0391006832
1837,0.0391006832
1838,0.0293255119
1839,0.0293255119
1840,0.0293255119
1841,0.0293255119
1842,0.0293255119
1843,0.0293255119
1844,0.0195503416
1845,0.0195503416
1846,0.0195503416
1847,0.0097751703
1848,0.0097751703
1849,0.0097751703
1850,0.0195503416
1851,0.0097751703
1852,0.0195503416
1853,0.0195503416
1854,0.0195503416
1855,0.0195503416
1856,0.0195503416
1857,0.0195503416
1858,0.0097751703
1859,0.0097751703
1860,0.0097751703
1861,0.0097751703
1862,0.0097751703
1863,0.0195503416
1864,0.0195503416
1865,0.0195503416
1866,0.0195503416
1867,0.0097751703
1868,0.0097751703
1869,0.0097751703
1870,0.0097751703
1871,0.0097751703
1872,0.0097751703
1873,0.0097751703
1874,0.0195503416
1875,0.0195503416
1876,0.0195503416
1877,0.0293255119
1878,0.0293255119
1879,0.0293255119
1880,0.0195503416
1881,0.0097751703
1882,0.0097751703
1883,0.0097751703
1884,0.0097751703
1885,0.0097751703
1886,0.0097751703
1887,0.0097751703
1888,0.0195503416
1889,0.0195503416
1890,0.0097751703
1891,0.0195503416
1892,0.0195503416
1893,0.0097751703
1894,0.0195503416
1895,0.0097751703
1896,0.0097751703
1897,0.0097751703
1898,0.0097751703
1899,0.0097751703
1900,0.0000000000
1901,0.0000000000
1902,0.0097751703
1903,0.0097751703
1904,0.0097751703
1905,0.0097751703
1906,0.0097751703
1907,0.0097751703
1908,0.0097751703
1909,0.0097751703
1910,0.0000000000
1911,0.0000000000
1912,0.0000000000
1913,0.0000000000
1914,0.0000000000
1915,0.0000000000
1916,0.0097751703
1917,0.0293255119
1918,0.0293255119
1919,0.0488758516
1920,0.0488758516
1921,0.0391006832
1922,0.0391006832
1923,0.0391006832
1924,0.0293255119
1925,0.0293255119
1926,0.0488758516
1927,0.0488758516
1928,0.0586510229
1929,0.0684261989
1930,0.0684261989
1931,0.0684261989
1932,0.0684261989
1933,0.0879765415
1934,0.0782013654
1935,0.0782013654
1936,0.0879765415
1937,0.0977517032
1938,0.1075268864
1939,0.1075268864
1940,0.1270772218
1941,0.1661779165
1942,0.1564027309
1943,0.1661779165
1944,0.1466275596
1945,0.1564027309
1946,0.1368523955
1947,0.1270772218
1948,0.1173020482
1949,0.1075268864
1950,0.0977517032
1951,0.1466275596
1952,0.1564027309
1953,0.1564027309
1954,0.1466275596
1955,0.1661779165
1956,0.1955034160
1957,0.1955034160
1958,0.1857282543
1959,0.2150537729
1960,0.2150537729
1961,0.2150537729
1962,0.2248289346
1963,0.2150537729
1964,0.2248289346
1965,0.2052785873
1966,0.2346040964
1967,0.2443792819
1968,0.2443792819
1969,0.2541544437
1970,0.2248289346
1971,0.2150537729
1972,0.2052785873
1973,0.2052785873
1974,0.2052785873
1975,0.2150537729
1976,0.2932551193
1977,0.4007820129
1978,0.4594330310
1979,0.5571847438
1980,0.5571847438
1981,0.5571847438
1982,0.5767350673
1983,0.5767350673
1984,0.5278592109
1985,0.5083088874
1986,0.5571847438
1987,0.6158357620
1988,0.5865102291
1989,0.5278592109
1990,0.4789833545
1991,0.4105571746
1992,0.3421309947
1993,0.2932551193
1994,0.2541544437
1995,0.2150537729
1996,0.1955034160
1997,0.1661779165
1998,0.1466275596
1999,0.1270772218
2000,0.1368523955
2001,1.1339198350
2002,0.9090909004
2003,0.7331378459
2004,0.6060606002
2005,0.5083088874
2006,0.4301075458
2007,0.3616813421
2008,0.3030303001
2009,0.2541544437
2010,0.2150537729
2011,0.2052785873
2012,0.1857282543
2013,0.1661779165
2014,0.1466275596
2015,0.1368523955
2016,0.1173020482
2017,0.1173020482
2018,0.1075268864
2019,0.0977517032
2020,0.0977517032
2021,0.0977517032
2022,0.0879765415
2023,0.0879765415
2024,0.0782013654
2025,0.0684261989
2026,0.0684261989
2027,0.0782013654
2028,0.0684261989
2029,0.0684261989
2030,0.0684261989
2031,0.0684261989
2032,0.0586510229
2033,0.0488758516
2034,0.0488758516
2035,0.0488758516
2036,0.0586510229
2037,0.0586510229
2038,0.0586510229
2039,0.0586510229
2040,0.0488758516
2041,0.0488758516
2042,0.0586510229
2043,0.0684261989
2044,0.0684261989
2045,0.0684261989
2046,0.0684261989
2047,0.0684261989
2048,0.0586510229
2049,0.0684261989
2050,0.0586510229
2051,0.0488758516
2052,0.0586510229
2053,0.0586510229
2054,0.0684261989
2055,0.0782013654
2056,0.0684261989
2057,0.0684261989
2058,0.0586510229
2059,0.0586510229
2060,0.0586510229
2061,0.0488758516
2062,0.0684261989
2063,0.0684261989
2064,0.0684261989
2065,0.0782013654
2066,0.0684261989
2067,0.0684261989
2068,0.0586510229
2069,0.0586510229
2070,0.0586510229
2071,0.0586510229
2072,0.0586510229
2073,0.0586510229
2074,0.0586510229
2075,0.0586510229
2076,0.0586510229
2077,0.0586510229
2078,0.0586510229
2079,0.0684261989
2080,0.0586510229
2081,0.0684261989
2082,0.0684261989
2083,0.0684261989
2084,0.0782013654
2085,0.0684261989
2086,0.0586510229
2087,0.0586510229
2088,0.0488758516
2089,0.0586510229
2090,0.0488758516
2091,0.0488758516
2092,0.0586510229
2093,0.0586510229
2094,0.0586510229
2095,0.0488758516
2096,0.0586510229
2097,0.0586510229
2098,0.0586510229
2099,0.0586510229
2100,0.0586510229
2101,0.0684261989
2102,0.0586510229
2103,0.0586510229
2104,0.0586510229
2105,0.0586510229
2106,0.0586510229
2107,0.0586510229
2108,0.0684261989
2109,0.0684261989
2110,0.0782013654
2111,0.0684261989
2112,0.0879765415
2113,0.1075268864
2114,0.1270772218
2115,0.1173020482
2116,0.1368523955
2117,0.1368523955
2118,0.1466275596
2119,0.1466275596
2120,0.1564027309
2121,0.1661779165
2122,0.1857282543
2123,0.1661779165
2124,0.1661779165
2125,0.1759530782
2126,0.1857282543
2127,0.1955034160
2128,0.1955034160
2129,0.1857282543
2130,0.1661779165
2131,0.1661779165
2132,0.1661779165
2133,0.1759530782
2134,0.1564027309
2135,0.1564027309
2136,0.1661779165
2137,0.1466275596
2138,0.1368523955
2139,0.1466275596
2140,0.1466275596
2141,0.1564027309
2142,0.1661779165
2143,0.1564027309
2144,0.1466275596
2145,0.1955034160
2146,0.1955034160
2147,0.1759530782
2148,0.1759530782
2149,0.1857282543
2150,0.2248289346
2151,0.2248289346
2152,0.2443792819
2153,0.2150537729
2154,0.2248289346
2155,0.2541544437
2156,0.2541544437
2157,0.2443792819
2158,0.2150537729
2159,0.2443792819
2160,0.2932551193
2161,0.2639296054
2162,0.2639296054
2163,0.2737047910
2164,0.2541544437
2165,0.2150537729
2166,0.2248289346
2167,0.2248289346
2168,0.2443792819
2169,0.3225806236
2170,0.4692081928
2171,0.5669599056
2172,0.5376344203
2173,0.6060606002
2174,0.5571847438
2175,0.4789833545
2176,0.4301075458
2177,0.4105571746
2178,0.3714565038
2179,0.3128054618
2180,0.2737047910
2181,0.2248289346
2182,0.2052785873
2183,0.1759530782
2184,0.1466275596
2185,0.1466275596
2186,0.1270772218
2187,0.1173020482
2188,0.0977517032
2189,0.0977517032
2190,0.0977517032
2191,0.0879765415
2192,0.0879765415
2193,0.0782013654
2194,0.0879765415
2195,0.0879765415
2196,0.0782013654
2197,0.0782013654
2198,0.0879765415
2199,0.0879765415
2200,0.1075268864
2201,0.0977517032
2202,0.1075268864
2203,0.1173020482
2204,0.1075268864
2205,0.1270772218
2206,0.1173020482
2207,0.1173020482
2208,0.1173020482
2209,0.1075268864
2210,0.1075268864
2211,0.1173020482
2212,0.1075268864
2213,0.1075268864
2214,0.1075268864
2215,0.1173020482
2216,0.1075268864
2217,0.1075268864
2218,0.0977517032
2219,0.0977517032
2220,0.0977517032
2221,0.1075268864
2222,0.1173020482
2223,0.1270772218
2224,0.1173020482
2225,0.1368523955
2226,0.1564027309
2227,0.1466275596
2228,0.1368523955
2229,0.1466275596
2230,0.1466275596
2231,0.1466275596
2232,0.1466275596
2233,0.1466275596
2234,0.1368523955
2235,0.1270772218
2236,0.1173020482
2237,0.1173020482
2238,0.0977517032
2239,0.0977517032
2240,0.0879765415
2241,0.0977517032
2242,0.0977517032
2243,0.0977517032
2244,0.0977517032
2245,0.0977517032
2246,0.0977517032
2247,0.1075268864
2248,0.1075268864
2249,0.1075268864
2250,0.1075268864
2251,0.0977517032
2252,0.0977517032
2253,0.1075268864
2254,0.0977517032
2255,0.0977517032
2256,0.0977517032
2257,0.1075268864
2258,0.1075268864
2259,0.1466275596
2260,0.1368523955
2261,0.1173020482
2262,0.1173020482
2263,0.1368523955
2264,0.1270772218
2265,0.1173020482
2266,0.0977517032
2267,0.1075268864
2268,0.1075268864
2269,0.0977517032
2270,0.0977517032
2271,0.0879765415
2272,0.0977517032
2273,0.0977517032
2274,0.0879765415
2275,0.0879765415
2276,0.0879765415
2277,0.0782013654
2278,0.0879765415
2279,0.0782013654
2280,0.0879765415
2281,0.0782013654
2282,0.0879765415
2283,0.0879765415
2284,0.0782013654
2285,0.0684261989
2286,0.0684261989
2287,0.0684261989
2288,0.0586510229
2289,0.0586510229
2290,0.0684261989
2291,0.0684261989
2292,0.0684261989
2293,0.0586510229
2294,0.0684261989
2295,0.0684261989
2296,0.0684261989
2297,0.0684261989
2298,0.0586510229
2299,0.0684261989
2300,0.0684261989
2301,0.0586510229
2302,0.0586510229
2303,0.0586510229
2304,0.0586510229
2305,0.0586510229
2306,0.0684261989
2307,0.0782013654
2308,0.0782013654
2309,0.0782013654
2310,0.0782013654
2311,0.0782013654
2312,0.0684261989
2313,0.0684261989
2314,0.0684261989
2315,0.0684261989
2316,0.0684261989
2317,0.0684261989
2318,0.0586510229
2319,0.0586510229
2320,0.0586510229
2321,0.0586510229
2322,0.0586510229
2323,0.0586510229
2324,0.0684261989
2325,0.0586510229
2326,0.0684261989
2327,0.0586510229
2328,0.0586510229
2329,0.0684261989
2330,0.0782013654
2331,0.0782013654
2332,0.0782013654
2333,0.0782013654
2334,0.0782013654
2335,0.0782013654
2336,0.0782013654
2337,0.0684261989
2338,0.0684261989
2339,0.0586510229
2340,0.0488758516
2341,0.0488758516
2342,0.0488758516
2343,0.0586510229
2344,0.0684261989
2345,0.0586510229
2346,0.0586510229
2347,0.0586510229
2348,0.0488758516
2349,0.0488758516
2350,0.0488758516
2351,0.0488758516
2352,0.0586510229
2353,0.0586510229
2354,0.0488758516
2355,0.0488758516
2356,0.0488758516
2357,0.0488758516
2358,0.0586510229
2359,0.0488758516
2360,0.0586510229
2361,0.0488758516
2362,0.0488758516
2363,0.0586510229
2364,0.0488758516
2365,0.0488758516
2366,0.0488758516
2367,0.0488758516
2368,0.0586510229
2369,0.0488758516
2370,0.0488758516
2371,0.0586510229
2372,0.0488758516
2373,0.0488758516
2374,0.0488758516
2375,0.0488758516
2376,0.0488758516
2377,0.0488758516
2378,0.0488758516
2379,0.0391006832
2380,0.0391006832
2381,0.0391006832
2382,0.0391006832
2383,0.0391006832
2384,0.0391006832
2385,0.0488758516
2386,0.0488758516
2387,0.0488758516
2388,0.0488758516
2389,0.0586510229
2390,0.0488758516
2391,0.0488758516
2392,0.0586510229
2393,0.0586510229
2394,0.0586510229
2395,0.0586510229
2396,0.0586510229
2397,0.0586510229
2398,0.0586510229
2399,0.0488758516
2400,0.0488758516
2401,0.0488758516
2402,0.0586510229
2403,0.0488758516
2404,0.0488758516
2405,0.0488758516
2406,0.0488758516
2407,0.0586510229
2408,0.0488758516
2409,0.0488758516
2410,0.0586510229
2411,0.0488758516
2412,0.0488758516
2413,0.0488758516
2414,0.0488758516
2415,0.0391006832
2416,0.0488758516
2417,0.0488758516
2418,0.0488758516
2419,0.0391006832
2420,0.0391006832
2421,0.0391006832
2422,0.0391006832
2423,0.0391006832
2424,0.0391006832
2425,0.0391006832
2426,0.0391006832
2427,0.0488758516
2428,0.0488758516
2429,0.0488758516
2430,0.0488758516
2431,0.0586510229
2432,0.0488758516
2433,0.0488758516
2434,0.0488758516
2435,0.0488758516
2436,0.0488758516
2437,0.0488758516
2438,0.0488758516
2439,0.0488758516
2440,0.0586510229
2441,0.0684261989
2442,0.0586510229
2443,0.0586510229
2444,0.0684261989
2445,0.0684261989
2446,0.0879765415
2447,0.0977517032
2448,0.1075268864
2449,0.0977517032
2450,0.0977517032
2451,0.0977517032
2452,0.0977517032
2453,0.1270772218
2454,0.1368523955
2455,0.1466275596
2456,0.1466275596
2457,0.1564027309
2458,0.1661779165
2459,0.1857282543
2460,0.1759530782
2461,0.1661779165
2462,0.1661779165
2463,0.1661779165
2464,0.2052785873
2465,0.2052785873
2466,0.1955034160
2467,0.2052785873
2468,0.1857282543
2469,0.2248289346
2470,0.2248289346
2471,0.2248289346
2472,0.2052785873
2473,0.1759530782
2474,0.1857282543
2475,0.2248289346
2476,0.2346040964
2477,0.2346040964
2478,0.2248289346
2479,0.2346040964
2480,0.2541544437
2481,0.2541544437
2482,0.2737047910
2483,0.2932551193
2484,0.3323558330
2485,0.3323558330
2486,0.3323558330
2487,0.3323558330
2488,0.3225806236
2489,0.2932551193
2490,0.2932551193
2491,0.3323558330
2492,0.3030303001
2493,0.3323558330
2494,0.3519061565
2495,0.3421309947
2496,0.3421309947
2497,0.3225806236
2498,0.3225806236
2499,0.3030303001
2500,0.3128054618
2501,0.2932551193
2502,0.2639296054
2503,0.2443792819
2504,0.2150537729
2505,0.2150537729
2506,0.2150537729
2507,0.2150537729
2508,0.2541544437
2509,0.4398827075
2510,0.5571847438
2511,0.6353860855
2512,0.7429130077
2513,0.8308895111
2514,0.8211143493
2515,0.6940371513
2516,0.5962854385
2517,0.5474095821
2518,0.4887585639
2519,0.4203323364
2520,0.3519061565
2521,0.2932551193
2522,0.2639296054
2523,0.2346040964
2524,0.2248289346
2525,0.2150537729
2526,0.1857282543
2527,0.1661779165
2528,0.1564027309
2529,0.1564027309
2530,0.1466275596
2531,0.1368523955
2532,0.1173020482
2533,0.0977517032
2534,0.0977517032
2535,0.0879765415
2536,0.0782013654
2537,0.0782013654
2538,0.0782013654
2539,0.0879765415
2540,0.0879765415
2541,0.0977517032
2542,0.0977517032
2543,0.0977517032
2544,0.0977517032
2545,0.0977517032
2546,0.1075268864
2547,0.0879765415
2548,0.0879765415
2549,0.0879765415
2550,0.0977517032
2551,0.0977517032
2552,0.0977517032
2553,0.0977517032
2554,0.0879765415
2555,0.0977517032
2556,0.0977517032
2557,0.0977517032
2558,0.0977517032
2559,0.0879765415
2560,0.0977517032
2561,0.1075268864
2562,0.0977517032
2563,0.1075268864
2564,0.1173020482
2565,0.1173020482
2566,0.1075268864
2567,0.0879765415
2568,0.0977517032
2569,0.0879765415
2570,0.0879765415
2571,0.0977517032
2572,0.0879765415
2573,0.0977517032
2574,0.0879765415
2575,0.0782013654
2576,0.0684261989
2577,0.0684261989
2578,0.0684261989
2579,0.0684261989
2580,0.0684261989
2581,0.0684261989
2582,0.0782013654
2583,0.0879765415
2584,0.0977517032
2585,0.0879765415
2586,0.0977517032
2587,0.0977517032
2588,0.0879765415
2589,0.0782013654
2590,0.0879765415
2591,0.0977517032
2592,0.0879765415
2593,0.0879765415
2594,0.0977517032
2595,0.1270772218
2596,0.1270772218
2597,0.1270772218
2598,0.1173020482
2599,0.1075268864
2600,0.1173020482
2601,0.1075268864
2602,0.1075268864
2603,0.1075268864
2604,0.1075268864
2605,0.0977517032
2606,0.0879765415
2607,0.0879765415
2608,0.0879765415
2609,0.0977517032
2610,0.0879765415
2611,0.0782013654
2612,0.0782013654
2613,0.0782013654
2614,0.0684261989
2615,0.0586510229
2616,0.0586510229
2617,0.0782013654
2618,0.0684261989
2619,0.0684261989
2620,0.0684261989
2621,0.0586510229
2622,0.0586510229
2623,0.0488758516
2624,0.0586510229
2625,0.0684261989
2626,0.0684261989
2627,0.0684261989
2628,0.0586510229
2629,0.0586510229
2630,0.0684261989
2631,0.0586510229
2632,0.0782013654
2633,0.0684261989
2634,0.0684261989
2635,0.0684261989
2636,0.0586510229
2637,0.0586510229
2638,0.0586510229
2639,0.0684261989
2640,0.0684261989
2641,0.0586510229
2642,0.0684261989
2643,0.0684261989
2644,0.0586510229
2645,0.0586510229
2646,0.0586510229
2647,0.0586510229
2648,0.0684261989
2649,0.0684261989
2650,0.0586510229
2651,0.0684261989
2652,0.0586510229
2653,0.0684261989
2654,0.0684261989
2655,0.0586510229
2656,0.0684261989
2657,0.0586510229
2658,0.0586510229
2659,0.0586510229
2660,0.0586510229
2661,0.0586510229
2662,0.0586510229
2663,0.0586510229
2664,0.0586510229
2665,0.0586510229
2666,0.0586510229
2667,0.0586510229
2668,0.0684261989
2669,0.0684261989
2670,0.0586510229
2671,0.0586510229
2672,0.0586510229
2673,0.0586510229
2674,0.0684261989
2675,0.0684261989
2676,0.0586510229
2677,0.0586510229
2678,0.0586510229
2679,0.0586510229
2680,0.0586510229
2681,0.0586510229
2682,0.0488758516
2683,0.0586510229
2684,0.0586510229
2685,0.0586510229
2686,0.0488758516
2687,0.0684261989
2688,0.0684261989
2689,0.0684261989
2690,0.0684261989
2691,0.0586510229
2692,0.0586510229
2693,0.0488758516
2694,0.0488758516
2695,0.0488758516
2696,0.0488758516
2697,0.0586510229
2698,0.0586510229
2699,0.0488758516
2700,0.0586510229
2701,0.0586510229
2702,0.0586510229
2703,0.0586510229
2704,0.0488758516
2705,0.0586510229
2706,0.0684261989
2707,0.0684261989
2708,0.0782013654
2709,0.0782013654
2710,0.0782013654
2711,0.0684261989
2712,0.0684261989
2713,0.0684261989
2714,0.0684261989
2715,0.0586510229
2716,0.0586510229
2717,0.0586510229
2718,0.0586510229
2719,0.0684261989
2720,0.0684261989
2721,0.0684261989
2722,0.0684261989
2723,0.0586510229
2724,0.0586510229
2725,0.0488758516
2726,0.0488758516
2727,0.0488758516
2728,0.0586510229
2729,0.0586510229
2730,0.0586510229
2731,0.0684261989
2732,0.0782013654
2733,0.0782013654
2734,0.0782013654
2735,0.0782013654
2736,0.0879765415
2737,0.0879765415
2738,0.0782013654
2739,0.0782013654
2740,0.0782013654
2741,0.0782013654
2742,0.0684261989
2743,0.0684261989
2744,0.0684261989
2745,0.0684261989
2746,0.0684261989
2747,0.0684261989
2748,0.0684261989
2749,0.0684261989
2750,0.0586510229
2751,0.0684261989
2752,0.0782013654
2753,0.0782013654
2754,0.0782013654
2755,0.0684261989
2756,0.0782013654
2757,0.0879765415
2758,0.0879765415
2759,0.0879765415
2760,0.0879765415
2761,0.0879765415
2762,0.0782013654
2763,0.0879765415
2764,0.0879765415
2765,0.0977517032
2766,0.0879765415
2767,0.0977517032
2768,0.1173020482
2769,0.1075268864
2770,0.0977517032
2771,0.0879765415
2772,0.0879765415
2773,0.0879765415
2774,0.0879765415
2775,0.0879765415
2776,0.0879765415
2777,0.0879765415
2778,0.0879765415
2779,0.0879765415
2780,0.0977517032
2781,0.0977517032
2782,0.1075268864
2783,0.1173020482
2784,0.1270772218
2785,0.1173020482
2786,0.1075268864
2787,0.1173020482
2788,0.1173020482
2789,0.0977517032
2790,0.0977517032
2791,0.1075268864
2792,0.1075268864
2793,0.1075268864
2794,0.0977517032
2795,0.1075268864
2796,0.1173020482
2797,0.1270772218
2798,0.1173020482
2799,0.1173020482
2800,0.1173020482
2801,0.1270772218
2802,0.1368523955
2803,0.1466275596
2804,0.1466275596
2805,0.1564027309
2806,0.1564027309
2807,0.1857282543
2808,0.1857282543
2809,0.1955034160
2810,0.1857282543
2811,0.1759530782
2812,0.1661779165
2813,0.1955034160
2814,0.1955034160
2815,0.1759530782
2816,0.1955034160
2817,0.1759530782
2818,0.1759530782
2819,0.1857282543
2820,0.1759530782
2821,0.1759530782
2822,0.1857282543
2823,0.1564027309
2824,0.1564027309
2825,0.1564027309
2826,0.1466275596
2827,0.1466275596
2828,0.1564027309
2829,0.1759530782
2830,0.1955034160
2831,0.2150537729
2832,0.2052785873
2833,0.1857282543
2834,0.1857282543
2835,0.2150537729
2836,0.1955034160
2837,0.1759530782
2838,0.1857282543
2839,0.1857282543
2840,0.1955034160
2841,0.2052785873
2842,0.2052785873
2843,0.2248289346
2844,0.2346040964
2845,0.2737047910
2846,0.2834799575
2847,0.3128054618
2848,0.3128054618
2849,0.2834799575
2850,0.2834799575
2851,0.2443792819
2852,0.2346040964
2853,0.2346040964
2854,0.3519061565
2855,0.5180840492
2856,0.4496578693
2857,0.4398827075
2858,0.4398827075
2859,0.4887585639
2860,0.4887585639
2861,0.4301075458
2862,0.4105571746
2863,0.4203323364
2864,0.3519061565
2865,0.3519061565
2866,0.3616813421
2867,0.3323558330
2868,0.2834799575
2869,0.2443792819
2870,0.1955034160
2871,0.1759530782
2872,0.1466275596
2873,0.1368523955
2874,0.1270772218
2875,0.1075268864
2876,0.1075268864
2877,0.1075268864
2878,0.0977517032
2879,0.0879765415
2880,0.0782013654
2881,0.0782013654
2882,0.0782013654
2883,0.0879765415
2884,0.0879765415
2885,0.0977517032
2886,0.0782013654
2887,0.0879765415
2888,0.0782013654
2889,0.0879765415
2890,0.0879765415
2891,0.0879765415
2892,0.0879765415
2893,0.0879765415
2894,0.0782013654
2895,0.0782013654
2896,0.0782013654
2897,0.0879765415
2898,0.0782013654
2899,0.0782013654
2900,0.0879765415
2901,0.0879765415
2902,0.0879765415
2903,0.0879765415
2904,0.0977517032
2905,0.1075268864
2906,0.1173020482
2907,0.1173020482
2908,0.1075268864
2909,0.0977517032
2910,0.0879765415
2911,0.0879765415
2912,0.0879765415
2913,0.0879765415
2914,0.0879765415
2915,0.0977517032
2916,0.0977517032
2917,0.1075268864
2918,0.1075268864
2919,0.1075268864
2920,0.1075268864
2921,0.1075268864
2922,0.1075268864
2923,0.1075268864
2924,0.0977517032
2925,0.0977517032
2926,0.0879765415
2927,0.0879765415
2928,0.0879765415
2929,0.0879765415
2930,0.0782013654
2931,0.0782013654
2932,0.0879765415
2933,0.0977517032
2934,0.0977517032
2935,0.0977517032
2936,0.1075268864
2937,0.1075268864
2938,0.1075268864
2939,0.1075268864
2940,0.0977517032
2941,0.0977517032
2942,0.0782013654
2943,0.0684261989
2944,0.0782013654
2945,0.0684261989
2946,0.0684261989
2947,0.0782013654
2948,0.0977517032
2949,0.1173020482
2950,0.1466275596
2951,0.1564027309
2952,0.1661779165
2953,0.1661779165
2954,0.1466275596
2955,0.1270772218
2956,0.1173020482
2957,0.1075268864
2958,0.0977517032
2959,0.0977517032
2960,0.0879765415
2961,0.0879765415
2962,0.0879765415
2963,0.0879765415
2964,0.0782013654
2965,0.0782013654
2966,0.0782013654
2967,0.0782013654
2968,0.0782013654
2969,0.0782013654
2970,0.0782013654
2971,0.0782013654
2972,0.0684261989
2973,0.0782013654
2974,0.0684261989
2975,0.0684261989
2976,0.0684261989
2977,0.0586510229
2978,0.0684261989
2979,0.0782013654
2980,0.0684261989
2981,0.0684261989
2982,0.0586510229
2983,0.0586510229
2984,0.0684261989
2985,0.0488758516
2986,0.0586510229
2987,0.0684261989
2988,0.0684261989
2989,0.0684261989
2990,0.0684261989
2991,0.0684261989
2992,0.0586510229
2993,0.0684261989
2994,0.0684261989
2995,0.0586510229
2996,0.0586510229
2997,0.0684261989
2998,0.0684261989
2999,0.0586510229
3000,0.0684261989
3001,0.3812316703
3002,0.3812316703
3003,0.3714565038
3004,0.3714565038
3005,0.3421309947
3006,0.3225806236
3007,0.3910068321
3008,0.3812316703
3009,0.3421309947
3010,0.3225806236
3011,0.3323558330
3012,0.3421309947
3013,0.3421309947
3014,0.3519061565
3015,0.3616813421
3016,0.3323558330
3017,0.3519061565
3018,0.3030303001
3019,0.3225806236
3020,0.3323558330
3021,0.3323558330
3022,0.3323558330
3023,0.4789833545
3024,0.4203323364
3025,0.4007820129
3026,0.4007820129
3027,0.4105571746
3028,0.3616813421
3029,0.3128054618
3030,0.3128054618
3031,0.3128054618
3032,0.2834799575
3033,0.2443792819
3034,0.2150537729
3035,0.2052785873
3036,0.1759530782
3037,0.1661779165
3038,0.1564027309
3039,0.2150537729
3040,0.2052785873
3041,0.2052785873
3042,0.1857282543
3043,0.1955034160
3044,0.2150537729
3045,0.1857282543
3046,0.2541544437
3047,0.2737047910
3048,0.2737047910
3049,0.2639296054
3050,0.2639296054
3051,0.2346040964
3052,0.2150537729
3053,0.1955034160
3054,0.1955034160
3055,0.1955034160
3056,0.1759530782
3057,0.1564027309
3058,0.1564027309
3059,0.1564027309
3060,0.1466275596
3061,0.1564027309
3062,0.1466275596
3063,0.1466275596
3064,0.1564027309
3065,0.1564027309
3066,0.1466275596
3067,0.1466275596
3068,0.1466275596
3069,0.1564027309
3070,0.1661779165
3071,0.1564027309
3072,0.1759530782
3073,0.1759530782
3074,0.1661779165
3075,0.1661779165
3076,0.1661779165
3077,0.1564027309
3078,0.1661779165
3079,0.2052785873
3080,0.1857282543
3081,0.1759530782
3082,0.1955034160
3083,0.1759530782
3084,0.1759530782
3085,0.1661779165
3086,0.1466275596
3087,0.1857282543
3088,0.1661779165
3089,0.1564027309
3090,0.1661779165
3091,0.1661779165
3092,0.1661779165
3093,0.1661779165
3094,0.1661779165
3095,0.1466275596
3096,0.1759530782
3097,0.1564027309
3098,0.1564027309
3099,0.1955034160
3100,0.2346040964
3101,0.2052785873
3102,0.1857282543
3103,0.1955034160
3104,0.1661779165
3105,0.1564027309
3106,0.1466275596
3107,0.1466275596
3108,0.1466275596
3109,0.1368523955
3110,0.1368523955
3111,0.1270772218
3112,0.1368523955
3113,0.1368523955
3114,0.1173020482
3115,0.1075268864
3116,0.0977517032
3117,0.0977517032
3118,0.0977517032
3119,0.0977517032
3120,0.1173020482
3121,0.1368523955
3122,0.1173020482
3123,0.1173020482
3124,0.1173020482
3125,0.1270772218
3126,0.1173020482
3127,0.1075268864
3128,0.1075268864
3129,0.0977517032
3130,0.0977517032
3131,0.1075268864
3132,0.1173020482
3133,0.1368523955
3134,0.1270772218
3135,0.1270772218
3136,0.1173020482
3137,0.1368523955
3138,0.1564027309
3139,0.1466275596
3140,0.1270772218
3141,0.1270772218
3142,0.1270772218
3143,0.1173020482
3144,0.0977517032
3145,0.0977517032
3146,0.0977517032
3147,0.0879765415
3148,0.0879765415
3149,0.0977517032
3150,0.0879765415
3151,0.0879765415
3152,0.0977517032
3153,0.0879765415
3154,0.0879765415
3155,0.0879765415
3156,0.0879765415
3157,0.0977517032
3158,0.0977517032
3159,0.0977517032
3160,0.1075268864
3161,0.1075268864
3162,0.1075268864
3163,0.1075268864
3164,0.0879765415
3165,0.0879765415
3166,0.0879765415
3167,0.0977517032
3168,0.0879765415
3169,0.1075268864
3170,0.1075268864
3171,0.0977517032
3172,0.0879765415
3173,0.0879765415
3174,0.0879765415
3175,0.0879765415
3176,0.0977517032
3177,0.0879765415
3178,0.0782013654
3179,0.0879765415
3180,0.1075268864
3181,0.0977517032
3182,0.0977517032
3183,0.1075268864
3184,0.1075268864
3185,0.0977517032
3186,0.0977517032
3187,0.0879765415
3188,0.0977517032
3189,0.1075268864
3190,0.0977517032
3191,0.0977517032
3192,0.0879765415
3193,0.0879765415
3194,0.0879765415
3195,0.0782013654
3196,0.0782013654
3197,0.0879765415
3198,0.1075268864
3199,0.0977517032
3200,0.1075268864
3201,0.1075268864
3202,0.1075268864
3203,0.1173020482
3204,0.0977517032
3205,0.0977517032
3206,0.0879765415
3207,0.0879765415
3208,0.0879765415
3209,0.0782013654
3210,0.0782013654
3211,0.0977517032
3212,0.1075268864
3213,0.1075268864
3214,0.0879765415
3215,0.1270772218
3216,0.0977517032
3217,0.1368523955
3218,0.1270772218
3219,0.1173020482
3220,0.1075268864
3221,0.0977517032
3222,0.0977517032
3223,0.0977517032
3224,0.0879765415
3225,0.0977517032
3226,0.0879765415
3227,0.0879765415
3228,0.0879765415
3229,0.0879765415
3230,0.0879765415
3231,0.0879765415
3232,0.0879765415
3233,0.0782013654
3234,0.0782013654
3235,0.0782013654
3236,0.0684261989
3237,0.0782013654
3238,0.0782013654
3239,0.0684261989
3240,0.0782013654
3241,0.0782013654
3242,0.0782013654
3243,0.0782013654
3244,0.0977517032
3245,0.0879765415
3246,0.0977517032
3247,0.0879765415
3248,0.0879765415
3249,0.0879765415
3250,0.0782013654
3251,0.0782013654
3252,0.0684261989
3253,0.0782013654
3254,0.0879765415
3255,0.0782013654
3256,0.0684261989
3257,0.0782013654
3258,0.0684261989
3259,0.0782013654
3260,0.0782013654
3261,0.0782013654
3262,0.0782013654
3263,0.0782013654
3264,0.0782013654
3265,0.0684261989
3266,0.0977517032
3267,0.0879765415
3268,0.0879765415
3269,0.0977517032
3270,0.0977517032
3271,0.1075268864
3272,0.1270772218
3273,0.1173020482
3274,0.1270772218
3275,0.1466275596
3276,0.1466275596
3277,0.1368523955
3278,0.1466275596
3279,0.1661779165
3280,0.1759530782
3281,0.1759530782
3282,0.1955034160
3283,0.2150537729
3284,0.2248289346
3285,0.2248289346
3286,0.2052785873
3287,0.2052785873
3288,0.2150537729
3289,0.2052785873
3290,0.1955034160
3291,0.2248289346
3292,0.2150537729
3293,0.2052785873
3294,0.2248289346
3295,0.2248289346
3296,0.2443792819
3297,0.2443792819
3298,0.2346040964
3299,0.2346040964
3300,0.2248289346
3301,0.2248289346
3302,0.2346040964
3303,0.2150537729
3304,0.2052785873
3305,0.2052785873
3306,0.1955034160
3307,0.2248289346
3308,0.2346040964
3309,0.2346040964
3310,0.2443792819
3311,0.2150537729
3312,0.2052785873
3313,0.2248289346
3314,0.2052785873
3315,0.2052785873
3316,0.2052785873
3317,0.2052785873
3318,0.2052785873
3319,0.2639296054
3320,0.2346040964
3321,0.2346040964
3322,0.2248289346
3323,0.2248289346
3324,0.2248289346
3325,0.2541544437
3326,0.2150537729
3327,0.2248289346
3328,0.2248289346
3329,0.2150537729
3330,0.2052785873
3331,0.2150537729
3332,0.2150537729
3333,0.1955034160
3334,0.1857282543
3335,0.1955034160
3336,0.1759530782
3337,0.1564027309
3338,0.1661779165
3339,0.1661779165
3340,0.1661779165
3341,0.1661779165
3342,0.1466275596
3343,0.1466275596
3344,0.1466275596
3345,0.1564027309
3346,0.1564027309
3347,0.1564027309
3348,0.1759530782
3349,0.1661779165
3350,0.1759530782
3351,0.1564027309
3352,0.1759530782
3353,0.1661779165
3354,0.1661779165
3355,0.1857282543
3356,0.1759530782
3357,0.1759530782
3358,0.1661779165
3359,0.1564027309
3360,0.1564027309
3361,0.1466275596
3362,0.1368523955
3363,0.1466275596
3364,0.1466275596
3365,0.1368523955
3366,0.1466275596
3367,0.1368523955
3368,0.1368523955
3369,0.1466275596
3370,0.1368523955
3371,0.1564027309
3372,0.1564027309
3373,0.1368523955
3374,0.1368523955
3375,0.1270772218
3376,0.1270772218
3377,0.1173020482
3378,0.1075268864
3379,0.1173020482
3380,0.1270772218
3381,0.1173020482
3382,0.1075268864
3383,0.0977517032
3384,0.1270772218
3385,0.1270772218
3386,0.1270772218
3387,0.1270772218
3388,0.1173020482
3389,0.1173020482
3390,0.1173020482
3391,0.1075268864
3392,0.1075268864
3393,0.0977517032
3394,0.1173020482
3395,0.1466275596
3396,0.1466275596
3397,0.1466275596
3398,0.1270772218
3399,0.1270772218
3400,0.1173020482
3401,0.0977517032
3402,0.1075268864
3403,0.1173020482
3404,0.1270772218
3405,0.1368523955
3406,0.1270772218
3407,0.1270772218
3408,0.1173020482
3409,0.1173020482
3410,0.1270772218
3411,0.1270772218
3412,0.1270772218
3413,0.1173020482
3414,0.1368523955
3415,0.1270772218
3416,0.1368523955
3417,0.1368523955
3418,0.1368523955
3419,0.1466275596
3420,0.1564027309
3421,0.1857282543
3422,0.1955034160
3423,0.1955034160
3424,0.1759530782
3425,0.1466275596
3426,0.1270772218
3427,0.1368523955
3428,0.1368523955
3429,0.1368523955
3430,0.1368523955
3431,0.1173020482
3432,0.1173020482
3433,0.1270772218
3434,0.1270772218
3435,0.1270772218
3436,0.1270772218
3437,0.1466275596
3438,0.1661779165
3439,0.1466275596
3440,0.1466275596
3441,0.1368523955
3442,0.1368523955
3443,0.1466275596
3444,0.1466275596
3445,0.1368523955
3446,0.1368523955
3447,0.1466275596
3448,0.1466275596
3449,0.1466275596
3450,0.1661779165
3451,0.1857282543
3452,0.2150537729
3453,0.1955034160
3454,0.1661779165
3455,0.1857282543
3456,0.1661779165
3457,0.1759530782
3458,0.1661779165
3459,0.1564027309
3460,0.1661779165
3461,0.1466275596
3462,0.1466275596
3463,0.1270772218
3464,0.1368523955
3465,0.1368523955
3466,0.1564027309
3467,0.1466275596
3468,0.1466275596
3469,0.1466275596
3470,0.1368523955
3471,0.1270772218
3472,0.1368523955
3473,0.1270772218
3474,0.1466275596
3475,0.1564027309
3476,0.1368523955
3477,0.1368523955
3478,0.1368523955
3479,0.1270772218
3480,0.1466275596
3481,0.1661779165
3482,0.1564027309
3483,0.1564027309
3484,0.1466275596
3485,0.1368523955
3486,0.1270772218
3487,0.1270772218
3488,0.1368523955
3489,0.1368523955
3490,0.1368523955
3491,0.1270772218
3492,0.1270772218
3493,0.1368523955
3494,0.1270772218
3495,0.1173020482
3496,0.1173020482
3497,0.1466275596
3498,0.1661779165
3499,0.1857282543
3500,0.2052785873
3501,0.2150537729
3502,0.2150537729
3503,0.2052785873
3504,0.1857282543
3505,0.1564027309
3506,0.1564027309
3507,0.1466275596
3508,0.1564027309
3509,0.1564027309
3510,0.1466275596
3511,0.1759530782
3512,0.1564027309
3513,0.1466275596
3514,0.1368523955
3515,0.1368523955
3516,0.1270772218
3517,0.1270772218
3518,0.1173020482
3519,0.1368523955
3520,0.1368523955
3521,0.1368523955
3522,0.1270772218
3523,0.1270772218
3524,0.1173020482
3525,0.1173020482
3526,0.1075268864
3527,0.1270772218
3528,0.1173020482
3529,0.1075268864
3530,0.1270772218
3531,0.1173020482
3532,0.1173020482
3533,0.1270772218
3534,0.1368523955
3535,0.1173020482
3536,0.0977517032
3537,0.1075268864
3538,0.1173020482
3539,0.1270772218
3540,0.1368523955
3541,0.1270772218
3542,0.1173020482
3543,0.1173020482
3544,0.1075268864
3545,0.0879765415
3546,0.0879765415
3547,0.0977517032
3548,0.1075268864
3549,0.1173020482
3550,0.1173020482
3551,0.1173020482
3552,0.1173020482
3553,0.1270772218
3554,0.1173020482
3555,0.1173020482
3556,0.1075268864
3557,0.1075268864
3558,0.1075268864
3559,0.1173020482
3560,0.0977517032
3561,0.1173020482
3562,0.1075268864
3563,0.0977517032
3564,0.1075268864
3565,0.1075268864
3566,0.0977517032
3567,0.0977517032
3568,0.0879765415
3569,0.0879765415
3570,0.0977517032
3571,0.1075268864
3572,0.1075268864
3573,0.1075268864
3574,0.1173020482
3575,0.1173020482
3576,0.1368523955
3577,0.1368523955
3578,0.1270772218
3579,0.1466275596
3580,0.1759530782
3581,0.1857282543
3582,0.1955034160
3583,0.2541544437
3584,0.2346040964
3585,0.2346040964
3586,0.2541544437
3587,0.2639296054
3588,0.2346040964
3589,0.2541544437
3590,0.2932551193
3591,0.2541544437
3592,0.2834799575
3593,0.2737047910
3594,0.2737047910
3595,0.2639296054
3596,0.2541544437
3597,0.2639296054
3598,0.3128054618
3599,0.3519061565
3600,0.3616813421
3601,0.3714565038
3602,0.4105571746
3603,0.4105571746
3604,0.4692081928
3605,0.4301075458
3606,0.5376344203
3607,0.4692081928
3608,0.4105571746
3609,0.4398827075
3610,0.4203323364
3611,0.3910068321
3612,0.4887585639
3613,0.4398827075
3614,0.4398827075
3615,0.4398827075
3616,0.4203323364
3617,0.3812316703
3618,0.3519061565
3619,0.3519061565
3620,0.3225806236
3621,0.3323558330
3622,0.3714565038
3623,0.3714565038
3624,0.3714565038
3625,0.3421309947
3626,0.3616813421
3627,0.4203323364
3628,0.4007820129
3629,0.3616813421
3630,0.3812316703
3631,0.4203323364
3632,0.3714565038
3633,0.3421309947
3634,0.3128054618
3635,0.3030303001
3636,0.2541544437
3637,0.2248289346
3638,0.2052785873
3639,0.1759530782
3640,0.1759530782
3641,0.1955034160
3642,0.1759530782
3643,0.1661779165
3644,0.1368523955
3645,0.1466275596
3646,0.1368523955
3647,0.1173020482
3648,0.1173020482
3649,0.1173020482
3650,0.1173020482
3651,0.1173020482
3652,0.1270772218
3653,0.1270772218
3654,0.1173020482
3655,0.0977517032
3656,0.1075268864
3657,0.1173020482
3658,0.1270772218
3659,0.1173020482
3660,0.1173020482
3661,0.1270772218
3662,0.1368523955
3663,0.1173020482
3664,0.1270772218
3665,0.1270772218
3666,0.1368523955
3667,0.1270772218
3668,0.1270772218
3669,0.1270772218
3670,0.1270772218
3671,0.1368523955
3672,0.1368523955
3673,0.1270772218
3674,0.1173020482
3675,0.1173020482
3676,0.1270772218
3677,0.1368523955
3678,0.1466275596
3679,0.1466275596
3680,0.1564027309
3681,0.1466275596
3682,0.1270772218
3683,0.1270772218
3684,0.1270772218
3685,0.1173020482
3686,0.1270772218
3687,0.1173020482
3688,0.1173020482
3689,0.1173020482
3690,0.1173020482
3691,0.1173020482
3692,0.1075268864
3693,0.1075268864
3694,0.1173020482
3695,0.1173020482
3696,0.1075268864
3697,0.1173020482
3698,0.1270772218
3699,0.1075268864
3700,0.1173020482
3701,0.1173020482
3702,0.1270772218
3703,0.1173020482
3704,0.1368523955
3705,0.1270772218
3706,0.1368523955
3707,0.1368523955
3708,0.1564027309
3709,0.1955034160
3710,0.2541544437
3711,0.2541544437
3712,0.2346040964
3713,0.2052785873
3714,0.2248289346
3715,0.1955034160
3716,0.1857282543
3717,0.1759530782
3718,0.1759530782
3719,0.1564027309
3720,0.1466275596
3721,0.1368523955
3722,0.1270772218
3723,0.1173020482
3724,0.1075268864
3725,0.1173020482
3726,0.1466275596
3727,0.1270772218
3728,0.1075268864
3729,0.1173020482
3730,0.1173020482
3731,0.1173020482
3732,0.0977517032
3733,0.1173020482
3734,0.1075268864
3735,0.1075268864
3736,0.1075268864
3737,0.1173020482
3738,0.1075268864
3739,0.1075268864
3740,0.0977517032
3741,0.1075268864
3742,0.1075268864
3743,0.0977517032
3744,0.1173020482
3745,0.1270772218
3746,0.1270772218
3747,0.1270772218
3748,0.1173020482
3749,0.1173020482
3750,0.1270772218
3751,0.1173020482
3752,0.1173020482
3753,0.1075268864
3754,0.1075268864
3755,0.0977517032
3756,0.0977517032
3757,0.0977517032
3758,0.0879765415
3759,0.0782013654
3760,0.0977517032
3761,0.0879765415
3762,0.0879765415
3763,0.0879765415
3764,0.0782013654
3765,0.0977517032
3766,0.1173020482
3767,0.1173020482
3768,0.0977517032
3769,0.0977517032
3770,0.0977517032
3771,0.0977517032
3772,0.0879765415
3773,0.0879765415
3774,0.0977517032
3775,0.0977517032
3776,0.0879765415
3777,0.0879765415
3778,0.0879765415
3779,0.0977517032
3780,0.0879765415
3781,0.1075268864
3782,0.0977517032
3783,0.0977517032
3784,0.0879765415
3785,0.0879765415
3786,0.1075268864
3787,0.0977517032
3788,0.0977517032
3789,0.0879765415
3790,0.1075268864
3791,0.0977517032
3792,0.0879765415
3793,0.0879765415
3794,0.0782013654
3795,0.0782013654
3796,0.0782013654
3797,0.0879765415
3798,0.0684261989
3799,0.0782013654
3800,0.0782013654
3801,0.0684261989
3802,0.0684261989
3803,0.0684261989
3804,0.0684261989
3805,0.0684261989
3806,0.0684261989
3807,0.0684261989
3808,0.0684261989
3809,0.0684261989
3810,0.0586510229
3811,0.0586510229
3812,0.0684261989
3813,0.0684261989
3814,0.0782013654
3815,0.0782013654
3816,0.0782013654
3817,0.0684261989
3818,0.0684261989
3819,0.0782013654
3820,0.0684261989
3821,0.0879765415
3822,0.0782013654
3823,0.0684261989
3824,0.0879765415
3825,0.0879765415
3826,0.0782013654
3827,0.0684261989
3828,0.0782013654
3829,0.0782013654
3830,0.0684261989
3831,0.0684261989
3832,0.0684261989
3833,0.0782013654
3834,0.0879765415
3835,0.0782013654
3836,0.0684261989
3837,0.0684261989
3838,0.0782013654
3839,0.0782013654
3840,0.0782013654
3841,0.0782013654
3842,0.0782013654
3843,0.0782013654
3844,0.0782013654
3845,0.0782013654
3846,0.0684261989
3847,0.0684261989
3848,0.0782013654
3849,0.0684261989
3850,0.0586510229
3851,0.0586510229
3852,0.0586510229
3853,0.0684261989
3854,0.0684261989
3855,0.0684261989
3856,0.0684261989
3857,0.0586510229
3858,0.0586510229
3859,0.0684261989
3860,0.0586510229
3861,0.0684261989
3862,0.0684261989
3863,0.0684261989
3864,0.0684261989
3865,0.0684261989
3866,0.0684261989
3867,0.0684261989
3868,0.0586510229
3869,0.0684261989
3870,0.0879765415
3871,0.0782013654
3872,0.0782013654
3873,0.0782013654
3874,0.0782013654
3875,0.0879765415
3876,0.0879765415
3877,0.0879765415
3878,0.0879765415
3879,0.0977517032
3880,0.1075268864
3881,0.1075268864
3882,0.1075268864
3883,0.1173020482
3884,0.1173020482
3885,0.1270772218
3886,0.1368523955
3887,0.1759530782
3888,0.1661779165
3889,0.1759530782
3890,0.1857282543
3891,0.2052785873
3892,0.2052785873
3893,0.2150537729
3894,0.2150537729
3895,0.2443792819
3896,0.2737047910
3897,0.2639296054
3898,0.2639296054
3899,0.2443792819
3900,0.2346040964
3901,0.2248289346
3902,0.2248289346
3903,0.2443792819
3904,0.2248289346
3905,0.2248289346
3906,0.2346040964
3907,0.2541544437
3908,0.2737047910
3909,0.2541544437
3910,0.2346040964
3911,0.2443792819
3912,0.2639296054
3913,0.3030303001
3914,0.3030303001
3915,0.3225806236
3916,0.3616813421
3917,0.4007820129
3918,0.3714565038
3919,0.3519061565
3920,0.3421309947
3921,0.3714565038
3922,0.3714565038
3923,0.3323558330
3924,0.3030303001
3925,0.3030303001
3926,0.3030303001
3927,0.3225806236
3928,0.3616813421
3929,0.3519061565
3930,0.3030303001
3931,0.2834799575
3932,0.2834799575
3933,0.3030303001
3934,0.2737047910
3935,0.2639296054
3936,0.2932551193
3937,0.2639296054
3938,0.2443792819
3939,0.2052785873
3940,0.1955034160
3941,0.1661779165
3942,0.1466275596
3943,0.1466275596
3944,0.1368523955
3945,0.1368523955
3946,0.1173020482
3947,0.1075268864
3948,0.1173020482
3949,0.1075268864
3950,0.0977517032
3951,0.1173020482
3952,0.1075268864
3953,0.0977517032
3954,0.1075268864
3955,0.1075268864
3956,0.1075268864
3957,0.1075268864
3958,0.1075268864
3959,0.0977517032
3960,0.0977517032
3961,0.1270772218
3962,0.1173020482
3963,0.1173020482
3964,0.1368523955
3965,0.1368523955
3966,0.1466275596
3967,0.1661779165
3968,0.1759530782
3969,0.1661779165
3970,0.1564027309
3971,0.1564027309
3972,0.1661779165
3973,0.1661779165
3974,0.1857282543
3975,0.1955034160
3976,0.2052785873
3977,0.1955034160
3978,0.1955034160
3979,0.1661779165
3980,0.1857282543
3981,0.2150537729
3982,0.2052785873
3983,0.2150537729
3984,0.2150537729
3985,0.2052785873
3986,0.1857282543
3987,0.1857282543
3988,0.1857282543
3989,0.1857282543
3990,0.1661779165
3991,0.1955034160
3992,0.1857282543
3993,0.1857282543
3994,0.1955034160
3995,0.1857282543
3996,0.1857282543
3997,0.1759530782
3998,0.1564027309
3999,0.1661779165
4000,0.2248289346
4001,0.6842619895
4002,0.5278592109
4003,0.4203323364
4004,0.3323558330
4005,0.2639296054
4006,0.2052785873
4007,0.1661779165
4008,0.1368523955
4009,0.1075268864
4010,0.0879765415
4011,0.0586510229
4012,0.0488758516
4013,0.0391006832
4014,0.0293255119
4015,0.0293255119
4016,0.0195503416
4017,0.0195503416
4018,0.0195503416
4019,0.0097751703
4020,0.0097751703
4021,0.0097751703
4022,0.0097751703
4023,0.0000000000
4024,0.0097751703
4025,0.0000000000
4026,0.0097751703
4027,0.0000000000
4028,0.0097751703
4029,0.0195503416
4030,0.0586510229
4031,0.0782013654
4032,0.0782013654
4033,0.0684261989
4034,0.0782013654
4035,0.0977517032
4036,0.1075268864
4037,0.1075268864
4038,0.1075268864
4039,0.1173020482
4040,0.0879765415
4041,0.1075268864
4042,0.1466275596
4043,0.1564027309
4044,0.2052785873
4045,0.2248289346
4046,0.2443792819
4047,0.2443792819
4048,0.2248289346
4049,0.2052785873
4050,0.2346040964
4051,0.2834799575
4052,0.3616813421
4053,0.3910068321
4054,0.3812316703
4055,0.3519061565
4056,0.3323558330
4057,0.3225806236
4058,0.3519061565
4059,0.3714565038
4060,0.4105571746
4061,0.4007820129
4062,0.4007820129
4063,0.4594330310
4064,0.4203323364
4065,0.4203323364
4066,0.5376344203
4067,0.5474095821
4068,0.6549364089
4069,0.6256109237
4070,0.5865102291
4071,0.5865102291
4072,0.5376344203
4073,0.4887585639
4074,0.5278592109
4075,0.4887585639
4076,0.4594330310
4077,0.4692081928
4078,0.4594330310
4079,0.5376344203
4080,0.5571847438
4081,0.4789833545
4082,0.4301075458
4083,0.3714565038
4084,0.3714565038
4085,0.3225806236
4086,0.3030303001
4087,0.2639296054
4088,0.2248289346
4089,0.1857282543
4090,0.1759530782
4091,0.1759530782
4092,0.1564027309
4093,0.1368523955
4094,0.1368523955
4095,0.1466275596
4096,0.1466275596
4097,0.1466275596
4098,0.1466275596
4099,0.1661779165
4100,0.1661779165
4101,0.1564027309
4102,0.1759530782
4103,0.1661779165
4104,0.1661779165
4105,0.1564027309
4106,0.1466275596
4107,0.1368523955
4108,0.1466275596
4109,0.1466275596
4110,0.1368523955
4111,0.1270772218
4112,0.1368523955
4113,0.1270772218
4114,0.1270772218
4115,0.1466275596
4116,0.1466275596
4117,0.1466275596
4118,0.1270772218
4119,0.1173020482
4120,0.1368523955
4121,0.1270772218
4122,0.1270772218
4123,0.1270772218
4124,0.1173020482
4125,0.1173020482
4126,0.1075268864
4127,0.0977517032
4128,0.0782013654
4129,0.0684261989
4130,0.0782013654
4131,0.0977517032
4132,0.0782013654
4133,0.0782013654
4134,0.0879765415
4135,0.0977517032
4136,0.0879765415
4137,0.0879765415
4138,0.1075268864
4139,0.1075268864
4140,0.0977517032
4141,0.0977517032
4142,0.0977517032
4143,0.0879765415
4144,0.0782013654
4145,0.0684261989
4146,0.0684261989
4147,0.0684261989
4148,0.0586510229
4149,0.0586510229
4150,0.0488758516
4151,0.0586510229
4152,0.0586510229
4153,0.0586510229
4154,0.0586510229
4155,0.0586510229
4156,0.0586510229
4157,0.0684261989
4158,0.0586510229
4159,0.0586510229
4160,0.0586510229
4161,0.0684261989
4162,0.0684261989
4163,0.0586510229
4164,0.0684261989
4165,0.0586510229
4166,0.0586510229
4167,0.0586510229
4168,0.0488758516
4169,0.0586510229
4170,0.0586510229
4171,0.0488758516
4172,0.0488758516
4173,0.0391006832
4174,0.0391006832
4175,0.0391006832
4176,0.0391006832
4177,0.0293255119
4178,0.0293255119
4179,0.0195503416
4180,0.0195503416
4181,0.0195503416
4182,0.0097751703
4183,0.0195503416
4184,0.0293255119
4185,0.0195503416
4186,0.0195503416
4187,0.0195503416
4188,0.0097751703
4189,0.0097751703
4190,0.0195503416
4191,0.0195503416
4192,0.0195503416
4193,0.0097751703
4194,0.0097751703
4195,0.0097751703
4196,0.0097751703
4197,0.0097751703
4198,0.0097751703
4199,0.0097751703
4200,0.0195503416
4201,0.0097751703
4202,0.0097751703
4203,0.0097751703
4204,0.0097751703
4205,0.0097751703
4206,0.0000000000
4207,0.0000000000
4208,0.0000000000
4209,0.0000000000
4210,0.0000000000
4211,0.0000000000
4212,0.0000000000
4213,0.0000000000
4214,0.0000000000
4215,0.0000000000
4216,0.0000000000
4217,0.0000000000
4218,0.0000000000
4219,0.0000000000
4220,0.0000000000
4221,0.0000000000
4222,0.0000000000
4223,0.0000000000
4224,0.0000000000
4225,0.0000000000
4226,0.0000000000
4227,0.0000000000
4228,0.0000000000
4229,0.0000000000
4230,0.0000000000
4231,0.0000000000
4232,0.0000000000
4233,0.0000000000
4234,0.0000000000
4235,0.0000000000
4236,0.0000000000
4237,0.0000000000
4238,0.0000000000
4239,0.0000000000
4240,0.0000000000
4241,0.0000000000
4242,0.0000000000
4243,0.0000000000
4244,0.0000000000
4245,0.0000000000
4246,0.0000000000
4247,0.0000000000
4248,0.0000000000
4249,0.0000000000
4250,0.0000000000
4251,0.0000000000
4252,0.0000000000
4253,0.0000000000
4254,0.0000000000
4255,0.0000000000
4256,0.0000000000
4257,0.0000000000
4258,0.0000000000
4259,0.0000000000
4260,0.0000000000
4261,0.0000000000
4262,0.0000000000
4263,0.0000000000
4264,0.0000000000
4265,0.0000000000
4266,0.0000000000
4267,0.0000000000
4268,0.0000000000
4269,0.0000000000
4270,0.0000000000
4271,0.0000000000
4272,0.0000000000
4273,0.0000000000
4274,0.0000000000
4275,0.0000000000
4276,0.0000000000
4277,0.0000000000
4278,0.0000000000
4279,0.0000000000
4280,0.0000000000
4281,0.0000000000
4282,0.0000000000
4283,0.0000000000
4284,0.0000000000
4285,0.0000000000
4286,0.0000000000
4287,0.0000000000
4288,0.0000000000
4289,0.0000000000
4290,0.0000000000
4291,0.0000000000
4292,0.0000000000
4293,0.0000000000
4294,0.0000000000
4295,0.0000000000
4296,0.0000000000
4297,0.0000000000
4298,0.0000000000
4299,0.0000000000
4300,0.0000000000
4301,0.0000000000
4302,0.0000000000
4303,0.0000000000
4304,0.0000000000
4305,0.0000000000
4306,0.0000000000
4307,0.0000000000
4308,0.0000000000
4309,0.0000000000
4310,0.0000000000
4311,0.0000000000
4312,0.0000000000
4313,0.0000000000
4314,0.0000000000
4315,0.0000000000
4316,0.0000000000
4317,0.0000000000
4318,0.0000000000
4319,0.0000000000
4320,0.0000000000
4321,0.0000000000
4322,0.0000000000
4323,0.0000000000
4324,0.0000000000
4325,0.0097751703
4326,0.0195503416
4327,0.0293255119
4328,0.0586510229
4329,0.0586510229
4330,0.0586510229
4331,0.0586510229
4332,0.0782013654
4333,0.0879765415
4334,0.0684261989
4335,0.0684261989
4336,0.0879765415
4337,0.0879765415
4338,0.1270772218
4339,0.1466275596
4340,0.1661779165
4341,0.1857282543
4342,0.2052785873
4343,0.1955034160
4344,0.1759530782
4345,0.1955034160
4346,0.2150537729
4347,0.2834799575
4348,0.2932551193
4349,0.2639296054
4350,0.2737047910
4351,0.3225806236
4352,0.3225806236
4353,0.3323558330
4354,0.4594330310
4355,0.4594330310
4356,0.4496578693
4357,0.4398827075
4358,0.4692081928
4359,0.4496578693
4360,0.4105571746
4361,0.4398827075
4362,0.5180840492
4363,0.5180840492
4364,0.5083088874
4365,0.4692081928
4366,0.4203323364
4367,0.3910068321
4368,0.4301075458
4369,0.4692081928
4370,0.6158357620
4371,0.5669599056
4372,0.5278592109
4373,0.5083088874
4374,0.5278592109
4375,0.5376344203
4376,0.5669599056
4377,0.5962854385
4378,0.6158357620
4379,0.6647116661
4380,0.6158357620
4381,0.5474095821
4382,0.5083088874
4383,0.4594330310
4384,0.4105571746
4385,0.3421309947
4386,0.2932551193
4387,0.2443792819
4388,0.2443792819
4389,0.2248289346
4390,0.1955034160
4391,0.1955034160
4392,0.1661779165
4393,0.1564027309
4394,0.1466275596
4395,0.1270772218
4396,0.1173020482
4397,0.1270772218
4398,0.1270772218
4399,0.1270772218
4400,0.1270772218
4401,0.1466275596
4402,0.1661779165
4403,0.1466275596
4404,0.1564027309
4405,0.1661779165
4406,0.1564027309
4407,0.1564027309
4408,0.1661779165
4409,0.1857282543
4410,0.1955034160
4411,0.1759530782
4412,0.1661779165
4413,0.1564027309
4414,0.1661779165
4415,0.1857282543
4416,0.1661779165
4417,0.1955034160
4418,0.1857282543
4419,0.1564027309
4420,0.1466275596
4421,0.1368523955
4422,0.1270772218
4423,0.1075268864
4424,0.1173020482
4425,0.1075268864
4426,0.0879765415
4427,0.0782013654
4428,0.0782013654
4429,0.0782013654
4430,0.0782013654
4431,0.0586510229
4432,0.0782013654
4433,0.0782013654
4434,0.0684261989
4435,0.0586510229
4436,0.0488758516
4437,0.0586510229
4438,0.0586510229
4439,0.0782013654
4440,0.0782013654
4441,0.0782013654
4442,0.0684261989
4443,0.0586510229
4444,0.0879765415
4445,0.0782013654
4446,0.0782013654
4447,0.0684261989
4448,0.0684261989
4449,0.0684261989
4450,0.0586510229
4451,0.0488758516
4452,0.0488758516
4453,0.0586510229
4454,0.0586510229
4455,0.0488758516
4456,0.0391006832
4457,0.0391006832
4458,0.0488758516
4459,0.0488758516
4460,0.0391006832
4461,0.0391006832
4462,0.0293255119
4463,0.0293255119
4464,0.0293255119
4465,0.0195503416
4466,0.0293255119
4467,0.0293255119
4468,0.0293255119
4469,0.0293255119
4470,0.0293255119
4471,0.0195503416
4472,0.0195503416
4473,0.0195503416
4474,0.0195503416
4475,0.0195503416
4476,0.0195503416
4477,0.0195503416
4478,0.0195503416
4479,0.0195503416
4480,0.0195503416
4481,0.0293255119
4482,0.0195503416
4483,0.0195503416
4484,0.0195503416
4485,0.0097751703
4486,0.0097751703
4487,0.0097751703
4488,0.0097751703
4489,0.0097751703
4490,0.0000000000
4491,0.0000000000
4492,0.0000000000
4493,0.0000000000
4494,0.0000000000
4495,0.0097751703
4496,0.0097751703
4497,0.0097751703
4498,0.0097751703
4499,0.0195503416
4500,0.0195503416
4501,0.0195503416
4502,0.0097751703
4503,0.0195503416
4504,0.0195503416
4505,0.0097751703
4506,0.0097751703
4507,0.0195503416
4508,0.0195503416
4509,0.0195503416
4510,0.0195503416
4511,0.0097751703
4512,0.0097751703
4513,0.0097751703
4514,0.0097751703
4515,0.0097751703
4516,0.0097751703
4517,0.0195503416
4518,0.0097751703
4519,0.0097751703
4520,0.0097751703
4521,0.0097751703
4522,0.0097751703
4523,0.0097751703
4524,0.0097751703
4525,0.0097751703
4526,0.0097751703
4527,0.0195503416
4528,0.0195503416
4529,0.0195503416
4530,0.0097751703
4531,0.0097751703
4532,0.0097751703
4533,0.0000000000
4534,0.0000000000
4535,0.0000000000
4536,0.0000000000
4537,0.0000000000
4538,0.0000000000
4539,0.0000000000
4540,0.0000000000
4541,0.0000000000
4542,0.0000000000
4543,0.0000000000
4544,0.0000000000
4545,0.0000000000
4546,0.0000000000
4547,0.0000000000
4548,0.0000000000
4549,0.0000000000
4550,0.0000000000
4551,0.0000000000
4552,0.0000000000
4553,0.0000000000
4554,0.0000000000
4555,0.0000000000
4556,0.0000000000
4557,0.0000000000
4558,0.0097751703
4559,0.0195503416
4560,0.0195503416
4561,0.0195503416
4562,0.0195503416
4563,0.0097751703
4564,0.0097751703
4565,0.0097751703
4566,0.0097751703
4567,0.0097751703
4568,0.0097751703
4569,0.0097751703
4570,0.0097751703
4571,0.0097751703
4572,0.0000000000
4573,0.0000000000
4574,0.0000000000
4575,0.0000000000
4576,0.0000000000
4577,0.0000000000
4578,0.0000000000
4579,0.0000000000
4580,0.0000000000
4581,0.0000000000
4582,0.0000000000
4583,0.0000000000
4584,0.0000000000
4585,0.0000000000
4586,0.0000000000
4587,0.0000000000
4588,0.0000000000
4589,0.0000000000
4590,0.0000000000
4591,0.0000000000
4592,0.0000000000
4593,0.0000000000
4594,0.0000000000
4595,0.0000000000
4596,0.0000000000
4597,0.0000000000
4598,0.0000000000
4599,0.0000000000
4600,0.0000000000
4601,0.0000000000
4602,0.0000000000
4603,0.0000000000
4604,0.0000000000
4605,0.0000000000
4606,0.0000000000
4607,0.0000000000
4608,0.0000000000
4609,0.0000000000
4610,0.0000000000
4611,0.0000000000
4612,0.0000000000
4613,0.0000000000
4614,0.0097751703
4615,0.0195503416
4616,0.0293255119
4617,0.0293255119
4618,0.0293255119
4619,0.0586510229
4620,0.0782013654
4621,0.0977517032
4622,0.1173020482
4623,0.1466275596
4624,0.1368523955
4625,0.1466275596
4626,0.1368523955
4627,0.1466275596
4628,0.1368523955
4629,0.1270772218
4630,0.1368523955
4631,0.1661779165
4632,0.1564027309
4633,0.1661779165
4634,0.2443792819
4635,0.2834799575
4636,0.3030303001
4637,0.3616813421
4638,0.3616813421
4639,0.3519061565
4640,0.3714565038
4641,0.3910068321
4642,0.4887585639
4643,0.5278592109
4644,0.5083088874
4645,0.4301075458
4646,0.4105571746
4647,0.4007820129
4648,0.4301075458
4649,0.4496578693
4650,0.4203323364
4651,0.4007820129
4652,0.4105571746
4653,0.4007820129
4654,0.4398827075
4655,0.3714565038
4656,0.3421309947
4657,0.3421309947
4658,0.3128054618
4659,0.3128054618
4660,0.3421309947
4661,0.3421309947
4662,0.3225806236
4663,0.3225806236
4664,0.3910068321
4665,0.3714565038
4666,0.3421309947
4667,0.3323558330
4668,0.3128054618
4669,0.2834799575
4670,0.2834799575
4671,0.2834799575
4672,0.2443792819
4673,0.2248289346
4674,0.2541544437
4675,0.2346040964
4676,0.1955034160
4677,0.1661779165
4678,0.1564027309
4679,0.1270772218
4680,0.1173020482
4681,0.1368523955
4682,0.1173020482
4683,0.1173020482
4684,0.1270772218
4685,0.1661779165
4686,0.1564027309
4687,0.1368523955
4688,0.1368523955
4689,0.1173020482
4690,0.1173020482
4691,0.1270772218
4692,0.1270772218
4693,0.1270772218
4694,0.1173020482
4695,0.1075268864
4696,0.1368523955
4697,0.1173020482
4698,0.1173020482
4699,0.1173020482
4700,0.0977517032
4701,0.0977517032
4702,0.0977517032
4703,0.0977517032
4704,0.0879765415
4705,0.0782013654
4706,0.1075268864
4707,0.1075268864
4708,0.1075268864
4709,0.0879765415
4710,0.1075268864
4711,0.0977517032
4712,0.0879765415
4713,0.0879765415
4714,0.0977517032
4715,0.0879765415
4716,0.0782013654
4717,0.0684261989
4718,0.0684261989
4719,0.0684261989
4720,0.0879765415
4721,0.0879765415
4722,0.0782013654
4723,0.0782013654
4724,0.0684261989
4725,0.0586510229
4726,0.0586510229
4727,0.0586510229
4728,0.0488758516
4729,0.0488758516
4730,0.0391006832
4731,0.0488758516
4732,0.0488758516
4733,0.0488758516
4734,0.0391006832
4735,0.0391006832
4736,0.0391006832
4737,0.0488758516
4738,0.0293255119
4739,0.0391006832
4740,0.0391006832
4741,0.0391006832
4742,0.0293255119
4743,0.0293255119
4744,0.0293255119
4745,0.0195503416
4746,0.0293255119
4747,0.0293255119
4748,0.0195503416
4749,0.0195503416
4750,0.0195503416
4751,0.0195503416
4752,0.0293255119
4753,0.0293255119
4754,0.0293255119
4755,0.0195503416
4756,0.0195503416
4757,0.0195503416
4758,0.0195503416
4759,0.0195503416
4760,0.0293255119
4761,0.0293255119
4762,0.0195503416
4763,0.0195503416
4764,0.0097751703
4765,0.0097751703
4766,0.0097751703
4767,0.0195503416
4768,0.0195503416
4769,0.0195503416
4770,0.0293255119
4771,0.0195503416
4772,0.0195503416
4773,0.0195503416
4774,0.0097751703
4775,0.0097751703
4776,0.0097751703
4777,0.0097751703
4778,0.0097751703
4779,0.0097751703
4780,0.0000000000
4781,0.0000000000
4782,0.0000000000
4783,0.0000000000
4784,0.0000000000
4785,0.0000000000
4786,0.0000000000
4787,0.0000000000
4788,0.0000000000
4789,0.0000000000
4790,0.0000000000
4791,0.0000000000
4792,0.0000000000
4793,0.0000000000
4794,0.0000000000
4795,0.0000000000
4796,0.0000000000
4797,0.0000000000
4798,0.0000000000
4799,0.0000000000
4800,0.0000000000
4801,0.0000000000
4802,0.0000000000
4803,0.0000000000
4804,0.0000000000
4805,0.0000000000
4806,0.0000000000
4807,0.0000000000
4808,0.0000000000
4809,0.0000000000
4810,0.0000000000
4811,0.0000000000
4812,0.0000000000
4813,0.0000000000
4814,0.0000000000
4815,0.0000000000
4816,0.0000000000
4817,0.0000000000
4818,0.0000000000
4819,0.0000000000
4820,0.0000000000
4821,0.0000000000
4822,0.0000000000
4823,0.0000000000
4824,0.0000000000
4825,0.0000000000
4826,0.0000000000
4827,0.0000000000
4828,0.0000000000
4829,0.0000000000
4830,0.0097751703
4831,0.0000000000
4832,0.0000000000
4833,0.0097751703
4834,0.0097751703
4835,0.0097751703
4836,0.0000000000
4837,0.0000000000
4838,0.0000000000
4839,0.0000000000
4840,0.0000000000
4841,0.0000000000
4842,0.0000000000
4843,0.0000000000
4844,0.0000000000
4845,0.0000000000
4846,0.0000000000
4847,0.0000000000
4848,0.0000000000
4849,0.0000000000
4850,0.0000000000
4851,0.0000000000
4852,0.0000000000
4853,0.0000000000
4854,0.0000000000
4855,0.0000000000
4856,0.0000000000
4857,0.0000000000
4858,0.0000000000
4859,0.0000000000
4860,0.0000000000
4861,0.0000000000
4862,0.0000000000
4863,0.0000000000
4864,0.0000000000
4865,0.0000000000
4866,0.0000000000
4867,0.0000000000
4868,0.0000000000
4869,0.0000000000
4870,0.0000000000
4871,0.0000000000
4872,0.0000000000
4873,0.0000000000
4874,0.0000000000
4875,0.0000000000
4876,0.0000000000
4877,0.0000000000
4878,0.0000000000
4879,0.0000000000
4880,0.0000000000
4881,0.0000000000
4882,0.0000000000
4883,0.0000000000
4884,0.0000000000
4885,0.0000000000
4886,0.0000000000
4887,0.0000000000
4888,0.0000000000
4889,0.0000000000
4890,0.0097751703
4891,0.0097751703
4892,0.0195503416
4893,0.0195503416
4894,0.0195503416
4895,0.0293255119
4896,0.0391006832
4897,0.0684261989
4898,0.0684261989
4899,0.0684261989
4900,0.0782013654
4901,0.0782013654
4902,0.0977517032
4903,0.1173020482
4904,0.1075268864
4905,0.0977517032
4906,0.0977517032
4907,0.1368523955
4908,0.1173020482
4909,0.1270772218
4910,0.1173020482
4911,0.1173020482
4912,0.1075268864
4913,0.1075268864
4914,0.1075268864
4915,0.0977517032
4916,0.1466275596
4917,0.1564027309
4918,0.1368523955
4919,0.1368523955
4920,0.1857282543
4921,0.1955034160
4922,0.1955034160
4923,0.2052785873
4924,0.2346040964
4925,0.2248289346
4926,0.2932551193
4927,0.3421309947
4928,0.3714565038
4929,0.3910068321
4930,0.4007820129
4931,0.4594330310
4932,0.4203323364
4933,0.3519061565
4934,0.3323558330
4935,0.4203323364
4936,0.4692081928
4937,0.5278592109
4938,0.4985337257
4939,0.4985337257
4940,0.4692081928
4941,0.4887585639
4942,0.4496578693
4943,0.4301075458
4944,0.4007820129
4945,0.3812316703
4946,0.3616813421
4947,0.3128054618
4948,0.2639296054
4949,0.2932551193
4950,0.3030303001
4951,0.3030303001
4952,0.2834799575
4953,0.2932551193
4954,0.2932551193
4955,0.3030303001
4956,0.3030303001
4957,0.2639296054
4958,0.2248289346
4959,0.2150537729
4960,0.2052785873
4961,0.1759530782
4962,0.1564027309
4963,0.1466275596
4964,0.1368523955
4965,0.1368523955
4966,0.1270772218
4967,0.1173020482
4968,0.1368523955
4969,0.1955034160
4970,0.1759530782
4971,0.1564027309
4972,0.1466275596
4973,0.1270772218
4974,0.1173020482
4975,0.1173020482
4976,0.1173020482
4977,0.1075268864
4978,0.1075268864
4979,0.0977517032
4980,0.1075268864
4981,0.1075268864
4982,0.0977517032
4983,0.1173020482
4984,0.1173020482
4985,0.1075268864
4986,0.1075268864
4987,0.1075268864
4988,0.1075268864
4989,0.1075268864
4990,0.1173020482
4991,0.1270772218
4992,0.1270772218
4993,0.1270772218
4994,0.1368523955
4995,0.1368523955
4996,0.1270772218
4997,0.1075268864
4998,0.1075268864
4999,0.1075268864
5000,0.1075268864
5001,0.7917888641
5002,0.6158357620
5003,0.4887585639
5004,0.3812316703
5005,0.2932551193
5006,0.2346040964
5007,0.1857282543
5008,0.1466275596
5009,0.1173020482
5010,0.0879765415
5011,0.0684261989
5012,0.0488758516
5013,0.0391006832
5014,0.0391006832
5015,0.0293255119
5016,0.0195503416
5017,0.0195503416
5018,0.0097751703
5019,0.0097751703
5020,0.0097751703
5021,0.0097751703
5022,0.0097751703
5023,0.0097751703
5024,0.0097751703
5025,0.0097751703
5026,0.0000000000
5027,0.0000000000
5028,0.0000000000
5029,0.0000000000
5030,0.0000000000
5031,0.0000000000
5032,0.0000000000
5033,0.0000000000
5034,0.0000000000
5035,0.0000000000
5036,0.0000000000
5037,0.0000000000
5038,0.0000000000
5039,0.0000000000
5040,0.0000000000
5041,0.0000000000
5042,0.0000000000
5043,0.0000000000
5044,0.0000000000
5045,0.0000000000
5046,0.0000000000
5047,0.0000000000
5048,0.0000000000
5049,0.0000000000
5050,0.0000000000
5051,0.0000000000
5052,0.0000000000
5053,0.0000000000
5054,0.0000000000
5055,0.0000000000
5056,0.0000000000
5057,0.0000000000
5058,0.0097751703
5059,0.0097751703
5060,0.0195503416
5061,0.0195503416
5062,0.0391006832
5063,0.0293255119
5064,0.0293255119
5065,0.0195503416
5066,0.0097751703
5067,0.0097751703
5068,0.0097751703
5069,0.0097751703
5070,0.0195503416
5071,0.0195503416
5072,0.0293255119
5073,0.0293255119
5074,0.0391006832
5075,0.0488758516
5076,0.0586510229
5077,0.0684261989
5078,0.0782013654
5079,0.0879765415
5080,0.0977517032
5081,0.0977517032
5082,0.0977517032
5083,0.1075268864
5084,0.1173020482
5085,0.1270772218
5086,0.1173020482
5087,0.1270772218
5088,0.1270772218
5089,0.1270772218
5090,0.1368523955
5091,0.1368523955
5092,0.1564027309
5093,0.2052785873
5094,0.1955034160
5095,0.1955034160
5096,0.1955034160
5097,0.2150537729
5098,0.2639296054
5099,0.2346040964
5100,0.2150537729
5101,0.2346040964
5102,0.2052785873
5103,0.2346040964
5104,0.2541544437
5105,0.2737047910
5106,0.3421309947
5107,0.3225806236
5108,0.3225806236
5109,0.2932551193
5110,0.2834799575
5111,0.3128054618
5112,0.2639296054
5113,0.3030303001
5114,0.3323558330
5115,0.3030303001
5116,0.3323558330
5117,0.3812316703
5118,0.4301075458
5119,0.5083088874
5120,0.4496578693
5121,0.4398827075
5122,0.4496578693
5123,0.4789833545
5124,0.4887585639
5125,0.4594330310
5126,0.4496578693
5127,0.3910068321
5128,0.3421309947
5129,0.3323558330
5130,0.2834799575
5131,0.2639296054
5132,0.2346040964
5133,0.1857282543
5134,0.1661779165
5135,0.1466275596
5136,0.1368523955
5137,0.1075268864
5138,0.1368523955
5139,0.1270772218
5140,0.1173020482
5141,0.1075268864
5142,0.1075268864
5143,0.1173020482
5144,0.0977517032
5145,0.0879765415
5146,0.1075268864
5147,0.1270772218
5148,0.1173020482
5149,0.1270772218
5150,0.1075268864
5151,0.0977517032
5152,0.0977517032
5153,0.1075268864
5154,0.1075268864
5155,0.1075268864
5156,0.1173020482
5157,0.1075268864
5158,0.1075268864
5159,0.0977517032
5160,0.1075268864
5161,0.0977517032
5162,0.1270772218
5163,0.1173020482
5164,0.1075268864
5165,0.1270772218
5166,0.1270772218
5167,0.1270772218
5168,0.1173020482
5169,0.1173020482
5170,0.1173020482
5171,0.1173020482
5172,0.1270772218
5173,0.1270772218
5174,0.1173020482
5175,0.0977517032
5176,0.1075268864
5177,0.0977517032
5178,0.0977517032
5179,0.0977517032
5180,0.1075268864
5181,0.0977517032
5182,0.0782013654
5183,0.0782013654
5184,0.0879765415
5185,0.0879765415
5186,0.0782013654
5187,0.0684261989
5188,0.0684261989
5189,0.0684261989
5190,0.0586510229
5191,0.0488758516
5192,0.0586510229
5193,0.0586510229
5194,0.0684261989
5195,0.0586510229
5196,0.0879765415
5197,0.0977517032
5198,0.0782013654
5199,0.0782013654
5200,0.0782013654
5201,0.0684261989
5202,0.0684261989
5203,0.0586510229
5204,0.0586510229
5205,0.0586510229
5206,0.0684261989
5207,0.0586510229
5208,0.0488758516
5209,0.0488758516
5210,0.0488758516
5211,0.0488758516
5212,0.0391006832
5213,0.0391006832
5214,0.0293255119
5215,0.0195503416
5216,0.0195503416
5217,0.0195503416
5218,0.0195503416
5219,0.0195503416
5220,0.0097751703
5221,0.0097751703
5222,0.0097751703
5223,0.0097751703
5224,0.0097751703
5225,0.0000000000
5226,0.0000000000
5227,0.0097751703
5228,0.0097751703
5229,0.0000000000
5230,0.0097751703
5231,0.0097751703
5232,0.0097751703
5233,0.0097751703
5234,0.0097751703
5235,0.0097751703
5236,0.0097751703
5237,0.0097751703
5238,0.0000000000
5239,0.0000000000
5240,0.0000000000
5241,0.0000000000
5242,0.0000000000
5243,0.0000000000
5244,0.0000000000
5245,0.0000000000
5246,0.0000000000
5247,0.0000000000
5248,0.0000000000
5249,0.0000000000
5250,0.0000000000
5251,0.0000000000
5252,0.0000000000
5253,0.0000000000
5254,0.0000000000
5255,0.0000000000
5256,0.0000000000
5257,0.0000000000
5258,0.0000000000
5259,0.0000000000
5260,0.0000000000
5261,0.0000000000
5262,0.0000000000
5263,0.0000000000
5264,0.0000000000
5265,0.0000000000
5266,0.0000000000
5267,0.0000000000
5268,0.0000000000
5269,0.0000000000
5270,0.0000000000
5271,0.0000000000
5272,0.0000000000
5273,0.0000000000
5274,0.0000000000
5275,0.0000000000
5276,0.0000000000
5277,0.0000000000
5278,0.0000000000
5279,0.0097751703
5280,0.0097751703
5281,0.0000000000
5282,0.0000000000
5283,0.0097751703
5284,0.0097751703
5285,0.0000000000
5286,0.0000000000
5287,0.0000000000
5288,0.0000000000
5289,0.0000000000
5290,0.0000000000
5291,0.0000000000
5292,0.0000000000
5293,0.0000000000
5294,0.0000000000
5295,0.0000000000
5296,0.0000000000
5297,0.0000000000
5298,0.0000000000
5299,0.0000000000
5300,0.0000000000
5301,0.0000000000
5302,0.0000000000
5303,0.0000000000
5304,0.0000000000
5305,0.0000000000
5306,0.0000000000
5307,0.0000000000
5308,0.0000000000
5309,0.0000000000
5310,0.0000000000
5311,0.0000000000
5312,0.0000000000
5313,0.0000000000
5314,0.0000000000
5315,0.0000000000
5316,0.0000000000
5317,0.0000000000
5318,0.0000000000
5319,0.0000000000
5320,0.0000000000
5321,0.0000000000
5322,0.0000000000
5323,0.0000000000
5324,0.0000000000
5325,0.0000000000
5326,0.0000000000
5327,0.0000000000
5328,0.0000000000
5329,0.0000000000
5330,0.0000000000
5331,0.0000000000
5332,0.0000000000
5333,0.0000000000
5334,0.0000000000
5335,0.0000000000
5336,0.0000000000
5337,0.0000000000
5338,0.0000000000
5339,0.0000000000
5340,0.0000000000
5341,0.0000000000
5342,0.0000000000
5343,0.0000000000
5344,0.0000000000
5345,0.0000000000
5346,0.0000000000
5347,0.0000000000
5348,0.0000000000
5349,0.0000000000
5350,0.0000000000
5351,0.0000000000
5352,0.0000000000
5353,0.0000000000
5354,0.0000000000
5355,0.0000000000
5356,0.0000000000
5357,0.0000000000
5358,0.0000000000
5359,0.0000000000
5360,0.0000000000
5361,0.0000000000
5362,0.0000000000
5363,0.0000000000
5364,0.0000000000
5365,0.0000000000
5366,0.0000000000
5367,0.0000000000
5368,0.0000000000
5369,0.0000000000
5370,0.0000000000
5371,0.0000000000
5372,0.0000000000
5373,0.0000000000
5374,0.0000000000
5375,0.0000000000
5376,0.0000000000
5377,0.0000000000
5378,0.0000000000
5379,0.0000000000
5380,0.0000000000
5381,0.0000000000
5382,0.0000000000
5383,0.0000000000
5384,0.0000000000
5385,0.0000000000
5386,0.0000000000
5387,0.0000000000
5388,0.0000000000
5389,0.0000000000
5390,0.0097751703
5391,0.0097751703
5392,0.0293255119
5393,0.0293255119
5394,0.0293255119
5395,0.0488758516
5396,0.0488758516
5397,0.0586510229
5398,0.0586510229
5399,0.0879765415
5400,0.0879765415
5401,0.1075268864
5402,0.1173020482
5403,0.1075268864
5404,0.1173020482
5405,0.1466275596
5406,0.1368523955
5407,0.1173020482
5408,0.1368523955
5409,0.1270772218
5410,0.1270772218
5411,0.1368523955
5412,0.1466275596
5413,0.1564027309
5414,0.1564027309
5415,0.1661779165
5416,0.1857282543
5417,0.2052785873
5418,0.2052785873
5419,0.2052785873
5420,0.1759530782
5421,0.1857282543
5422,0.1955034160
5423,0.2052785873
5424,0.2248289346
5425,0.2346040964
5426,0.2834799575
5427,0.2834799575
5428,0.2932551193
5429,0.2541544437
5430,0.2541544437
5431,0.2639296054
5432,0.2932551193
5433,0.2834799575
5434,0.2834799575
5435,0.3225806236
5436,0.3225806236
5437,0.3225806236
5438,0.2834799575
5439,0.2932551193
5440,0.2932551193
5441,0.3225806236
5442,0.2932551193
5443,0.2737047910
5444,0.2639296054
5445,0.2639296054
5446,0.2834799575
5447,0.2834799575
5448,0.2834799575
5449,0.2737047910
5450,0.2737047910
5451,0.2639296054
5452,0.2248289346
5453,0.2052785873
5454,0.2052785873
5455,0.1759530782
5456,0.1466275596
5457,0.1270772218
5458,0.1270772218
5459,0.1173020482
5460,0.1075268864
5461,0.0977517032
5462,0.0879765415
5463,0.0977517032
5464,0.0879765415
5465,0.0782013654
5466,0.0782013654
5467,0.0684261989
5468,0.0684261989
5469,0.0684261989
5470,0.0684261989
5471,0.0684261989
5472,0.0684261989
5473,0.0782013654
5474,0.0782013654
5475,0.0879765415
5476,0.0879765415
5477,0.0879765415
5478,0.0782013654
5479,0.0879765415
5480,0.1075268864
5481,0.1075268864
5482,0.1075268864
5483,0.1075268864
5484,0.1173020482
5485,0.0977517032
5486,0.1075268864
5487,0.0879765415
5488,0.0782013654
5489,0.0782013654
5490,0.0684261989
5491,0.0782013654
5492,0.0977517032
5493,0.0879765415
5494,0.0879765415
5495,0.0782013654
5496,0.0684261989
5497,0.0782013654
5498,0.0782013654
5499,0.0684261989
5500,0.0782013654
5501,0.0782013654
5502,0.0684261989
5503,0.0782013654
5504,0.0684261989
5505,0.0782013654
5506,0.0782013654
5507,0.0684261989
5508,0.1075268864
5509,0.1075268864
5510,0.0977517032
5511,0.1075268864
5512,0.1075268864
5513,0.0977517032
5514,0.0879765415
5515,0.0684261989
5516,0.0684261989
5517,0.0684261989
5518,0.0586510229
5519,0.0488758516
5520,0.0488758516
5521,0.0488758516
5522,0.0488758516
5523,0.0488758516
5524,0.0488758516
5525,0.0391006832
5526,0.0293255119
5527,0.0391006832
5528,0.0293255119
5529,0.0195503416
5530,0.0195503416
5531,0.0195503416
5532,0.0195503416
5533,0.0195503416
5534,0.0097751703
5535,0.0097751703
5536,0.0097751703
5537,0.0097751703
5538,0.0097751703
5539,0.0097751703
5540,0.0097751703
5541,0.0195503416
5542,0.0195503416
5543,0.0293255119
5544,0.0195503416
5545,0.0195503416
5546,0.0195503416
5547,0.0097751703
5548,0.0097751703
5549,0.0195503416
5550,0.0195503416
5551,0.0293255119
5552,0.0195503416
5553,0.0195503416
5554,0.0195503416
5555,0.0097751703
5556,0.0097751703
5557,0.0097751703
5558,0.0097751703
5559,0.0097751703
5560,0.0000000000
5561,0.0097751703
5562,0.0097751703
5563,0.0195503416
5564,0.0097751703
5565,0.0195503416
5566,0.0195503416
5567,0.0195503416
5568,0.0097751703
5569,0.0097751703
5570,0.0097751703
5571,0.0000000000
5572,0.0097751703
5573,0.0097751703
5574,0.0000000000
5575,0.0000000000
5576,0.0000000000
5577,0.0097751703
5578,0.0000000000
5579,0.0000000000
5580,0.0000000000
5581,0.0000000000
5582,0.0000000000
5583,0.0000000000
5584,0.0097751703
5585,0.0097751703
5586,0.0097751703
5587,0.0195503416
5588,0.0097751703
5589,0.0097751703
5590,0.0097751703
5591,0.0097751703
5592,0.0097751703
5593,0.0097751703
5594,0.0195503416
5595,0.0293255119
5596,0.0195503416
5597,0.0097751703
5598,0.0097751703
5599,0.0000000000
5600,0.0000000000
5601,0.0000000000
5602,0.0097751703
5603,0.0097751703
5604,0.0097751703
5605,0.0097751703
5606,0.0097751703
5607,0.0097751703
5608,0.0097751703
5609,0.0097751703
5610,0.0097751703
5611,0.0097751703
5612,0.0097751703
5613,0.0097751703
5614,0.0097751703
5615,0.0097751703
5616,0.0097751703
5617,0.0097751703
5618,0.0195503416
5619,0.0195503416
5620,0.0097751703
5621,0.0097751703
5622,0.0097751703
5623,0.0097751703
5624,0.0097751703
5625,0.0000000000
5626,0.0097751703
5627,0.0097751703
5628,0.0195503416
5629,0.0097751703
5630,0.0097751703
5631,0.0097751703
5632,0.0097751703
5633,0.0097751703
5634,0.0097751703
5635,0.0000000000
5636,0.0000000000
5637,0.0000000000
5638,0.0000000000
5639,0.0000000000
5640,0.0000000000
5641,0.0000000000
5642,0.0000000000
5643,0.0000000000
5644,0.0000000000
5645,0.0000000000
5646,0.0000000000
5647,0.0000000000
5648,0.0000000000
5649,0.0000000000
5650,0.0097751703
5651,0.0000000000
5652,0.0000000000
5653,0.0000000000
5654,0.0000000000
5655,0.0000000000
5656,0.0000000000
5657,0.0000000000
5658,0.0000000000
5659,0.0000000000
5660,0.0000000000
5661,0.0000000000
5662,0.0000000000
5663,0.0000000000
5664,0.0000000000
5665,0.0000000000
5666,0.0000000000
5667,0.0000000000
5668,0.0000000000
5669,0.0000000000
5670,0.0000000000
5671,0.0000000000
5672,0.0000000000
5673,0.0000000000
5674,0.0000000000
5675,0.0000000000
5676,0.0000000000
5677,0.0000000000
5678,0.0000000000
5679,0.0000000000
5680,0.0000000000
5681,0.0000000000
5682,0.0000000000
5683,0.0000000000
5684,0.0000000000
5685,0.0000000000
5686,0.0000000000
5687,0.0000000000
5688,0.0000000000
5689,0.0000000000
5690,0.0000000000
5691,0.0000000000
5692,0.0000000000
5693,0.0000000000
5694,0.0000000000
5695,0.0195503416
5696,0.0195503416
5697,0.0391006832
5698,0.0586510229
5699,0.0684261989
5700,0.1075268864
5701,0.1173020482
5702,0.1270772218
5703,0.1173020482
5704,0.1759530782
5705,0.1661779165
5706,0.1955034160
5707,0.2248289346
5708,0.2150537729
5709,0.2150537729
5710,0.2248289346
5711,0.1955034160
5712,0.1955034160
5713,0.2150537729
5714,0.2346040964
5715,0.2346040964
5716,0.2541544437
5717,0.2248289346
5718,0.2541544437
5719,0.2834799575
5720,0.2932551193
5721,0.2834799575
5722,0.2639296054
5723,0.2346040964
5724,0.2248289346
5725,0.2443792819
5726,0.2443792819
5727,0.2541544437
5728,0.2639296054
5729,0.2443792819
5730,0.2443792819
5731,0.2541544437
5732,0.2932551193
5733,0.2639296054
5734,0.2443792819
5735,0.2639296054
5736,0.2443792819
5737,0.2932551193
5738,0.3225806236
5739,0.3323558330
5740,0.2737047910
5741,0.2932551193
5742,0.3812316703
5743,0.5180840492
5744,0.5669599056
5745,0.6256109237
5746,0.5962854385
5747,0.5669599056
5748,0.6353860855
5749,0.7331378459
5750,0.7624633312
5751,0.7722384929
5752,0.7233626842
5753,0.6549364089
5754,0.5767350673
5755,0.5669599056
5756,0.5376344203
5757,0.4594330310
5758,0.4007820129
5759,0.3421309947
5760,0.2834799575
5761,0.2443792819
5762,0.2346040964
5763,0.2248289346
5764,0.1857282543
5765,0.1564027309
5766,0.1466275596
5767,0.1270772218
5768,0.1173020482
5769,0.1173020482
5770,0.1270772218
5771,0.1173020482
5772,0.0977517032
5773,0.0977517032
5774,0.0977517032
5775,0.0879765415
5776,0.1075268864
5777,0.1075268864
5778,0.1173020482
5779,0.1270772218
5780,0.1466275596
5781,0.1368523955
5782,0.1173020482
5783,0.1075268864
5784,0.0977517032
5785,0.0879765415
5786,0.0879765415
5787,0.0977517032
5788,0.1075268864
5789,0.0977517032
5790,0.0977517032
5791,0.0977517032
5792,0.0879765415
5793,0.1075268864
5794,0.1075268864
5795,0.1173020482
5796,0.1075268864
5797,0.0977517032
5798,0.1075268864
5799,0.1075268864
5800,0.1075268864
5801,0.1075268864
5802,0.0977517032
5803,0.0977517032
5804,0.0977517032
5805,0.0977517032
5806,0.0879765415
5807,0.0879765415
5808,0.1173020482
5809,0.0977517032
5810,0.0879765415
5811,0.0782013654
5812,0.0684261989
5813,0.0586510229
5814,0.0586510229
5815,0.0488758516
5816,0.0586510229
5817,0.0879765415
5818,0.0879765415
5819,0.0879765415
5820,0.0977517032
5821,0.1075268864
5822,0.1075268864
5823,0.1075268864
5824,0.0977517032
5825,0.0782013654
5826,0.0879765415
5827,0.0782013654
5828,0.0782013654
5829,0.0782013654
5830,0.0782013654
5831,0.0684261989
5832,0.0586510229
5833,0.0488758516
5834,0.0391006832
5835,0.0391006832
5836,0.0391006832
5837,0.0293255119
5838,0.0195503416
5839,0.0195503416
5840,0.0195503416
5841,0.0195503416
5842,0.0097751703
5843,0.0097751703
5844,0.0097751703
5845,0.0195503416
5846,0.0195503416
5847,0.0097751703
5848,0.0391006832
5849,0.0488758516
5850,0.0488758516
5851,0.0488758516
5852,0.0684261989
5853,0.0586510229
5854,0.0391006832
5855,0.0391006832
5856,0.0293255119
5857,0.0293255119
5858,0.0195503416
5859,0.0195503416
5860,0.0195503416
5861,0.0195503416
5862,0.0195503416
5863,0.0195503416
5864,0.0195503416
5865,0.0195503416
5866,0.0195503416
5867,0.0195503416
5868,0.0195503416
5869,0.0195503416
5870,0.0293255119
5871,0.0195503416
5872,0.0097751703
5873,0.0097751703
5874,0.0097751703
5875,0.0195503416
5876,0.0097751703
5877,0.0097751703
5878,0.0097751703
5879,0.0000000000
5880,0.0000000000
5881,0.0000000000
5882,0.0000000000
5883,0.0000000000
5884,0.0097751703
5885,0.0097751703
5886,0.0000000000
5887,0.0000000000
5888,0.0000000000
5889,0.0000000000
5890,0.0000000000
5891,0.0000000000
5892,0.0000000000
5893,0.0000000000
5894,0.0000000000
5895,0.0000000000
5896,0.0000000000
5897,0.0000000000
5898,0.0000000000
5899,0.0000000000
5900,0.0097751703
5901,0.0195503416
5902,0.0195503416
5903,0.0097751703
5904,0.0195503416
5905,0.0097751703
5906,0.0097751703
5907,0.0097751703
5908,0.0097751703
5909,0.0097751703
5910,0.0097751703
5911,0.0097751703
5912,0.0195503416
5913,0.0195503416
5914,0.0097751703
5915,0.0097751703
5916,0.0097751703
5917,0.0097751703
5918,0.0000000000
5919,0.0000000000
5920,0.0000000000
5921,0.0000000000
5922,0.0000000000
5923,0.0000000000
5924,0.0000000000
5925,0.0000000000
5926,0.0000000000
5927,0.0000000000
5928,0.0000000000
5929,0.0000000000
5930,0.0000000000
5931,0.0000000000
5932,0.0000000000
5933,0.0000000000
5934,0.0000000000
5935,0.0000000000
5936,0.0000000000
5937,0.0000000000
5938,0.0000000000
5939,0.0000000000
5940,0.0000000000
5941,0.0000000000
5942,0.0000000000
5943,0.0000000000
5944,0.0000000000
5945,0.0000000000
5946,0.0000000000
5947,0.0000000000
5948,0.0000000000
5949,0.0000000000
5950,0.0000000000
5951,0.0000000000
5952,0.0000000000
5953,0.0000000000
5954,0.0000000000
5955,0.0000000000
5956,0.0000000000
5957,0.0000000000
5958,0.0000000000
5959,0.0000000000
5960,0.0000000000
5961,0.0000000000
5962,0.0000000000
5963,0.0000000000
5964,0.0000000000
5965,0.0000000000
5966,0.0000000000
5967,0.0000000000
5968,0.0000000000
5969,0.0000000000
5970,0.0000000000
5971,0.0000000000
5972,0.0000000000
5973,0.0000000000
5974,0.0000000000
5975,0.0000000000
5976,0.0000000000
5977,0.0000000000
5978,0.0000000000
5979,0.0000000000
5980,0.0000000000
5981,0.0000000000
5982,0.0000000000
5983,0.0000000000
5984,0.0000000000
5985,0.0000000000
5986,0.0000000000
5987,0.0000000000
5988,0.0000000000
5989,0.0000000000
5990,0.0000000000
5991,0.0000000000
5992,0.0000000000
5993,0.0000000000
5994,0.0000000000
5995,0.0000000000
5996,0.0000000000
5997,0.0097751703
5998,0.0195503416
5999,0.0293255119
6000,0.0586510229
6001,0.8015640258
6002,0.6647116661
6003,0.5376344203
6004,0.4398827075
6005,0.3616813421
6006,0.3030303001
6007,0.2639296054
6008,0.2150537729
6009,0.1955034160
6010,0.1759530782
6011,0.1564027309
6012,0.1368523955
6013,0.1173020482
6014,0.1075268864
6015,0.1075268864
6016,0.0977517032
6017,0.0879765415
6018,0.0879765415
6019,0.0879765415
6020,0.0879765415
6021,0.0879765415
6022,0.0782013654
6023,0.0782013654
6024,0.0879765415
6025,0.0782013654
6026,0.0782013654
6027,0.0782013654
6028,0.0782013654
6029,0.0684261989
6030,0.0586510229
6031,0.0684261989
6032,0.0684261989
6033,0.0586510229
6034,0.0684261989
6035,0.0586510229
6036,0.0586510229
6037,0.0586510229
6038,0.0488758516
6039,0.0488758516
6040,0.0586510229
6041,0.0586510229
6042,0.0586510229
6043,0.0488758516
6044,0.0488758516
6045,0.0488758516
6046,0.0586510229
6047,0.0488758516
6048,0.0488758516
6049,0.0586510229
6050,0.0586510229
6051,0.0488758516
6052,0.0586510229
6053,0.0488758516
6054,0.0488758516
6055,0.0488758516
6056,0.0586510229
6057,0.0684261989
6058,0.0684261989
6059,0.0684261989
6060,0.0684261989
6061,0.0488758516
6062,0.0586510229
6063,0.0488758516
6064,0.0586510229
6065,0.0586510229
6066,0.0586510229
6067,0.0586510229
6068,0.0586510229
6069,0.0488758516
6070,0.0586510229
6071,0.0586510229
6072,0.0586510229
6073,0.0488758516
6074,0.0488758516
6075,0.0488758516
6076,0.0488758516
6077,0.0488758516
6078,0.0586510229
6079,0.0488758516
6080,0.0586510229
6081,0.0586510229
6082,0.0488758516
6083,0.0488758516
6084,0.0488758516
6085,0.0488758516
6086,0.0586510229
6087,0.0488758516
6088,0.0488758516
6089,0.0488758516
6090,0.0488758516
6091,0.0586510229
6092,0.0488758516
6093,0.0488758516
6094,0.0488758516
6095,0.0488758516
6096,0.0488758516
6097,0.0586510229
6098,0.0488758516
6099,0.0586510229
6100,0.0488758516
6101,0.0488758516
6102,0.0488758516
6103,0.0488758516
6104,0.0488758516
6105,0.0488758516
6106,0.0488758516
6107,0.0488758516
6108,0.0488758516
6109,0.0488758516
6110,0.0488758516
6111,0.0488758516
6112,0.0488758516
6113,0.0488758516
6114,0.0488758516
6115,0.0488758516
6116,0.0391006832
6117,0.0391006832
6118,0.0293255119
6119,0.0391006832
6120,0.0391006832
6121,0.0293255119
6122,0.0391006832
6123,0.0391006832
6124,0.0391006832
6125,0.0391006832
6126,0.0391006832
6127,0.0488758516
6128,0.0586510229
6129,0.0488758516
6130,0.0488758516
6131,0.0586510229
6132,0.0586510229
6133,0.0586510229
6134,0.0586510229
6135,0.0488758516
6136,0.0488758516
6137,0.0488758516
6138,0.0488758516
6139,0.0488758516
6140,0.0488758516
6141,0.0488758516
6142,0.0586510229
6143,0.0586510229
6144,0.0586510229
6145,0.0586510229
6146,0.0586510229
6147,0.0684261989
6148,0.0684261989
6149,0.0684261989
6150,0.0782013654
6151,0.0684261989
6152,0.0879765415
6153,0.0879765415
6154,0.1075268864
6155,0.1075268864
6156,0.1173020482
6157,0.1368523955
6158,0.1466275596
6159,0.1368523955
6160,0.1466275596
6161,0.1466275596
6162,0.1270772218
6163,0.1466275596
6164,0.1368523955
6165,0.1466275596
6166,0.1466275596
6167,0.1368523955
6168,0.1368523955
6169,0.1270772218
6170,0.1368523955
6171,0.1466275596
6172,0.1368523955
6173,0.1368523955
6174,0.1564027309
6175,0.1564027309
6176,0.1564027309
6177,0.1661779165
6178,0.1564027309
6179,0.1955034160
6180,0.1759530782
6181,0.1857282543
6182,0.1759530782
6183,0.2150537729
6184,0.2052785873
6185,0.2052785873
6186,0.2052785873
6187,0.2346040964
6188,0.2541544437
6189,0.2443792819
6190,0.2248289346
6191,0.2248289346
6192,0.2834799575
6193,0.2737047910
6194,0.2737047910
6195,0.3225806236
6196,0.3030303001
6197,0.2834799575
6198,0.2932551193
6199,0.2737047910
6200,0.2737047910
6201,0.2639296054
6202,0.2639296054
6203,0.2541544437
6204,0.2443792819
6205,0.2541544437
6206,0.2737047910
6207,0.2737047910
6208,0.2443792819
6209,0.2443792819
6210,0.2737047910
6211,0.2541544437
6212,0.2443792819
6213,0.2150537729
6214,0.1857282543
6215,0.1564027309
6216,0.1270772218
6217,0.1173020482
6218,0.0977517032
6219,0.0879765415
6220,0.0879765415
6221,0.0782013654
6222,0.0684261989
6223,0.0684261989
6224,0.0684261989
6225,0.0684261989
6226,0.0586510229
6227,0.0684261989
6228,0.0684261989
6229,0.0684261989
6230,0.0782013654
6231,0.0782013654
6232,0.0782013654
6233,0.0879765415
6234,0.0879765415
6235,0.0879765415
6236,0.0782013654
6237,0.0879765415
6238,0.0782013654
6239,0.0879765415
6240,0.0977517032
6241,0.1075268864
6242,0.0977517032
6243,0.0977517032
6244,0.1075268864
6245,0.0977517032
6246,0.0977517032
6247,0.0977517032
6248,0.1075268864
6249,0.1075268864
6250,0.1075268864
6251,0.1173020482
6252,0.1075268864
6253,0.0977517032
6254,0.1075268864
6255,0.0977517032
6256,0.0879765415
6257,0.0879765415
6258,0.0879765415
6259,0.0879765415
6260,0.0879765415
6261,0.0879765415
6262,0.0879765415
6263,0.0879765415
6264,0.0977517032
6265,0.0879765415
6266,0.0879765415
6267,0.0879765415
6268,0.0879765415
6269,0.0879765415
6270,0.0977517032
6271,0.0977517032
6272,0.0879765415
6273,0.0879765415
6274,0.0782013654
6275,0.0879765415
6276,0.0879765415
6277,0.0879765415
6278,0.0879765415
6279,0.0879765415
6280,0.0879765415
6281,0.0879765415
6282,0.0879765415
6283,0.0879765415
6284,0.0879765415
6285,0.0879765415
6286,0.0879765415
6287,0.0977517032
6288,0.0879765415
6289,0.0879765415
6290,0.0879765415
6291,0.0782013654
6292,0.0684261989
6293,0.0782013654
6294,0.0782013654
6295,0.0684261989
6296,0.0684261989
6297,0.0684261989
6298,0.0684261989
6299,0.0586510229
6300,0.0684261989
6301,0.0684261989
6302,0.0586510229
6303,0.0684261989
6304,0.0586510229
6305,0.0684261989
6306,0.0684261989
6307,0.0684261989
6308,0.0684261989
6309,0.0684261989
6310,0.0684261989
6311,0.0684261989
6312,0.0684261989
6313,0.0684261989
6314,0.0684261989
6315,0.0684261989
6316,0.0684261989
6317,0.0684261989
6318,0.0684261989
6319,0.0782013654
6320,0.0782013654
6321,0.0684261989
6322,0.0684261989
6323,0.0586510229
6324,0.0586510229
6325,0.0586510229
6326,0.0586510229
6327,0.0684261989
6328,0.0782013654
6329,0.0684261989
6330,0.0782013654
6331,0.0782013654
6332,0.0684261989
6333,0.0684261989
6334,0.0684261989
6335,0.0684261989
6336,0.0684261989
6337,0.0684261989
6338,0.0684261989
6339,0.0586510229
6340,0.0684261989
6341,0.0684261989
6342,0.0684261989
6343,0.0684261989
6344,0.0586510229
6345,0.0586510229
6346,0.0586510229
6347,0.0586510229
6348,0.0488758516
6349,0.0586510229
6350,0.0586510229
6351,0.0586510229
6352,0.0586510229
6353,0.0586510229
6354,0.0586510229
6355,0.0586510229
6356,0.0586510229
6357,0.0586510229
6358,0.0586510229
6359,0.0586510229
6360,0.0586510229
6361,0.0488758516
6362,0.0488758516
6363,0.0488758516
6364,0.0488758516
6365,0.0488758516
6366,0.0391006832
6367,0.0391006832
6368,0.0488758516
6369,0.0488758516
6370,0.0488758516
6371,0.0488758516
6372,0.0488758516
6373,0.0488758516
6374,0.0488758516
6375,0.0488758516
6376,0.0488758516
6377,0.0586510229
6378,0.0488758516
6379,0.0488758516
6380,0.0488758516
6381,0.0488758516
6382,0.0488758516
6383,0.0488758516
6384,0.0488758516
6385,0.0488758516
6386,0.0488758516
6387,0.0488758516
6388,0.0586510229
6389,0.0488758516
6390,0.0586510229
6391,0.0488758516
6392,0.0586510229
6393,0.0488758516
6394,0.0488758516
6395,0.0488758516
6396,0.0488758516
6397,0.0391006832
6398,0.0488758516
6399,0.0488758516
6400,0.0391006832
6401,0.0488758516
6402,0.0488758516
6403,0.0488758516
6404,0.0488758516
6405,0.0488758516
6406,0.0586510229
6407,0.0586510229
6408,0.0586510229
6409,0.0586510229
6410,0.0586510229
6411,0.0586510229
6412,0.0586510229
6413,0.0586510229
6414,0.0488758516
6415,0.0488758516
6416,0.0488758516
6417,0.0488758516
6418,0.0488758516
6419,0.0488758516
6420,0.0391006832
6421,0.0488758516
6422,0.0488758516
6423,0.0586510229
6424,0.0586510229
6425,0.0684261989
6426,0.0684261989
6427,0.0684261989
6428,0.0782013654
6429,0.0684261989
6430,0.0684261989
6431,0.0586510229
6432,0.0684261989
6433,0.0586510229
6434,0.0586510229
6435,0.0586510229
6436,0.0586510229
6437,0.0586510229
6438,0.0684261989
6439,0.0586510229
6440,0.0586510229
6441,0.0586510229
6442,0.0488758516
6443,0.0488758516
6444,0.0488758516
6445,0.0488758516
6446,0.0488758516
6447,0.0488758516
6448,0.0586510229
6449,0.0488758516
6450,0.0586510229
6451,0.0684261989
6452,0.0684261989
6453,0.0684261989
6454,0.0684261989
6455,0.0684261989
6456,0.0684261989
6457,0.0879765415
6458,0.0977517032
6459,0.0879765415
6460,0.0977517032
6461,0.1075268864
6462,0.1075268864
6463,0.1173020482
6464,0.1270772218
6465,0.1173020482
6466,0.1368523955
6467,0.1368523955
6468,0.1564027309
6469,0.1564027309
6470,0.1466275596
6471,0.1368523955
6472,0.1368523955
6473,0.1466275596
6474,0.1466275596
6475,0.1466275596
6476,0.1661779165
6477,0.1857282543
6478,0.1759530782
6479,0.1661779165
6480,0.1759530782
6481,0.1564027309
6482,0.1368523955
6483,0.1466275596
6484,0.1270772218
6485,0.1270772218
6486,0.1270772218
6487,0.1270772218
6488,0.1270772218
6489,0.1270772218
6490,0.1368523955
6491,0.1466275596
6492,0.1759530782
6493,0.1955034160
6494,0.1857282543
6495,0.1955034160
6496,0.1955034160
6497,0.2052785873
6498,0.1955034160
6499,0.1955034160
6500,0.2346040964
6501,0.2052785873
6502,0.2443792819
6503,0.2346040964
6504,0.2150537729
6505,0.2150537729
6506,0.2052785873
6507,0.2052785873
6508,0.2052785873
6509,0.1955034160
6510,0.1857282543
6511,0.1955034160
6512,0.1955034160
6513,0.1661779165
6514,0.1759530782
6515,0.1759530782
6516,0.1857282543
6517,0.2541544437
6518,0.2248289346
6519,0.2541544437
6520,0.2834799575
6521,0.2443792819
6522,0.2150537729
6523,0.1955034160
6524,0.1857282543
6525,0.1466275596
6526,0.1368523955
6527,0.1173020482
6528,0.1075268864
6529,0.0977517032
6530,0.0879765415
6531,0.0782013654
6532,0.0977517032
6533,0.0977517032
6534,0.1075268864
6535,0.0977517032
6536,0.0977517032
6537,0.0977517032
6538,0.0977517032
6539,0.1075268864
6540,0.1075268864
6541,0.0977517032
6542,0.0977517032
6543,0.0879765415
6544,0.0879765415
6545,0.0782013654
6546,0.0879765415
6547,0.1075268864
6548,0.1075268864
6549,0.0977517032
6550,0.0977517032
6551,0.0977517032
6552,0.0977517032
6553,0.1075268864
6554,0.1075268864
6555,0.1075268864
6556,0.1270772218
6557,0.1173020482
6558,0.1173020482
6559,0.1075268864
6560,0.1270772218
6561,0.1173020482
6562,0.1173020482
6563,0.1173020482
6564,0.1173020482
6565,0.1173020482
6566,0.1173020482
6567,0.1270772218
6568,0.1368523955
6569,0.1368523955
6570,0.1270772218
6571,0.1270772218
6572,0.1270772218
6573,0.1368523955
6574,0.1173020482
6575,0.1075268864
6576,0.0977517032
6577,0.0977517032
6578,0.0977517032
6579,0.0879765415
6580,0.0879765415
6581,0.0879765415
6582,0.0879765415
6583,0.1075268864
6584,0.1075268864
6585,0.0977517032
6586,0.0879765415
6587,0.0782013654
6588,0.0977517032
6589,0.0977517032
6590,0.0977517032
6591,0.0879765415
6592,0.0879765415
6593,0.0879765415
6594,0.0879765415
6595,0.0879765415
6596,0.0879765415
6597,0.0782013654
6598,0.0782013654
6599,0.0684261989
6600,0.0684261989
6601,0.0684261989
6602,0.0684261989
6603,0.0684261989
6604,0.0782013654
6605,0.0879765415
6606,0.0782013654
6607,0.0684261989
6608,0.0782013654
6609,0.0782013654
6610,0.0782013654
6611,0.0879765415
6612,0.0977517032
6613,0.0879765415
6614,0.0782013654
6615,0.0879765415
6616,0.0879765415
6617,0.0879765415
6618,0.0782013654
6619,0.0782013654
6620,0.0782013654
6621,0.0684261989
6622,0.0586510229
6623,0.0586510229
6624,0.0586510229
6625,0.0586510229
6626,0.0586510229
6627,0.0586510229
6628,0.0488758516
6629,0.0488758516
6630,0.0488758516
6631,0.0488758516
6632,0.0586510229
6633,0.0684261989
6634,0.0586510229
6635,0.0586510229
6636,0.0488758516
6637,0.0586510229
6638,0.0586510229
6639,0.0586510229
6640,0.0586510229
6641,0.0586510229
6642,0.0586510229
6643,0.0586510229
6644,0.0586510229
6645,0.0684261989
6646,0.0586510229
6647,0.0586510229
6648,0.0586510229
6649,0.0586510229
6650,0.0586510229
6651,0.0488758516
6652,0.0488758516
6653,0.0488758516
6654,0.0488758516
6655,0.0488758516
6656,0.0488758516
6657,0.0586510229
6658,0.0684261989
6659,0.0684261989
6660,0.0684261989
6661,0.0684261989
6662,0.0586510229
6663,0.0586510229
6664,0.0586510229
6665,0.0488758516
6666,0.0586510229
6667,0.0488758516
6668,0.0488758516
6669,0.0488758516
6670,0.0586510229
6671,0.0488758516
6672,0.0488758516
6673,0.0586510229
6674,0.0586510229
6675,0.0586510229
6676,0.0586510229
6677,0.0488758516
6678,0.0586510229
6679,0.0586510229
6680,0.0586510229
6681,0.0586510229
6682,0.0684261989
6683,0.0684261989
6684,0.0586510229
6685,0.0586510229
6686,0.0488758516
6687,0.0488758516
6688,0.0488758516
6689,0.0488758516
6690,0.0488758516
6691,0.0488758516
6692,0.0391006832
6693,0.0391006832
6694,0.0391006832
6695,0.0488758516
6696,0.0391006832
6697,0.0488758516
6698,0.0488758516
6699,0.0488758516
6700,0.0488758516
6701,0.0488758516
6702,0.0488758516
6703,0.0488758516
6704,0.0488758516
6705,0.0488758516
6706,0.0488758516
6707,0.0488758516
6708,0.0391006832
6709,0.0488758516
6710,0.0488758516
6711,0.0488758516
6712,0.0488758516
6713,0.0488758516
6714,0.0488758516
6715,0.0586510229
6716,0.0586510229
6717,0.0586510229
6718,0.0586510229
6719,0.0586510229
6720,0.0684261989
6721,0.0684261989
6722,0.0684261989
6723,0.0684261989
6724,0.0684261989
6725,0.0684261989
6726,0.0586510229
6727,0.0586510229
