0,0.1661779165
1,0.3714565038
2,0.4594330310
3,0.4887585639
4,0.4985337257
5,0.4594330310
6,0.3910068321
7,0.3519061565
8,0.3225806236
9,0.2834799575
10,0.2541544437
11,0.2248289346
12,0.2248289346
13,0.2150537729
14,0.2052785873
15,0.1955034160
16,0.1857282543
17,0.2052785873
18,0.2150537729
19,0.2052785873
20,0.2443792819
21,0.2541544437
22,0.2443792819
23,0.2052785873
24,0.1955034160
25,0.1955034160
26,0.1955034160
27,0.1759530782
28,0.1661779165
29,0.1661779165
30,0.1564027309
31,0.1564027309
32,0.2639296054
33,0.2443792819
34,0.2248289346
35,0.2150537729
36,0.1759530782
37,0.1466275596
38,0.1270772218
39,0.1270772218
40,0.1173020482
41,0.1173020482
42,0.1075268864
43,0.0977517032
44,0.0977517032
45,0.0879765415
46,0.0879765415
47,0.0782013654
48,0.0684261989
49,0.0684261989
50,0.0684261989
51,0.0684261989
52,0.0586510229
53,0.0586510229
54,0.0586510229
55,0.0586510229
56,0.0488758516
57,0.0488758516
58,0.0488758516
59,0.0488758516
60,0.0391006832
61,0.0293255119
62,0.0293255119
63,0.0293255119
64,0.0293255119
65,0.0293255119
66,0.0293255119
67,0.0293255119
68,0.0391006832
69,0.0391006832
70,0.0488758516
71,0.0488758516
72,0.0586510229
73,0.0586510229
74,0.0684261989
75,0.0782013654
76,0.0684261989
77,0.0586510229
78,0.0488758516
79,0.0391006832
80,0.0391006832
81,0.0293255119
82,0.0391006832
83,0.0293255119
84,0.0293255119
85,0.0293255119
86,0.0195503416
87,0.0293255119
88,0.0195503416
89,0.0195503416
90,0.0195503416
91,0.0195503416
92,0.0195503416
93,0.0097751703
94,0.0097751703
95,0.0195503416
96,0.0195503416
97,0.0097751703
98,0.0097751703
99,0.0097751703
100,0.0097751703
101,0.0097751703
102,0.0097751703
103,0.0097751703
104,0.0097751703
105,0.0000000000
106,0.0000000000
107,0.0097751703
108,0.0000000000
109,0.0000000000
110,0.0000000000
111,0.0000000000
112,0.0000000000
113,0.0000000000
114,0.0000000000
115,0.0000000000
116,0.0097751703
117,0.0097751703
118,0.0097751703
119,0.0195503416
120,0.0195503416
121,0.0195503416
122,0.0391006832
123,0.0391006832
124,0.0488758516
125,0.0488758516
126,0.0488758516
127,0.0488758516
128,0.0488758516
129,0.0586510229
130,0.0586510229
131,0.0684261989
132,0.0684261989
133,0.2932551193
134,0.2834799575
135,0.2932551193
136,0.3030303001
137,0.2932551193
138,0.2932551193
139,0.2932551193
140,0.2639296054
141,0.2541544437
142,0.2248289346
143,0.2248289346
144,0.2150537729
145,0.2248289346
146,0.2346040964
147,0.2150537729
148,0.1955034160
149,0.1759530782
150,0.1857282543
151,0.1661779165
152,0.1564027309
153,0.1466275596
154,0.1466275596
155,0.1466275596
156,0.2150537729
157,0.2737047910
158,0.2346040964
159,0.2052785873
160,0.1661779165
161,0.1368523955
162,0.1173020482
163,0.1075268864
164,0.0977517032
165,0.0977517032
166,0.0782013654
167,0.0684261989
168,0.0684261989
169,0.0586510229
170,0.0488758516
171,0.0391006832
172,0.0391006832
173,0.0391006832
174,0.0391006832
175,0.0293255119
176,0.0293255119
177,0.0293255119
178,0.0195503416
179,0.0195503416
180,0.0195503416
181,0.0195503416
182,0.0195503416
183,0.0195503416
184,0.0195503416
185,0.0195503416
186,0.0195503416
187,0.0097751703
188,0.0097751703
189,0.0391006832
190,0.0488758516
191,0.0293255119
192,0.0293255119
193,0.0293255119
194,0.0195503416
195,0.0195503416
196,0.0195503416
197,0.0195503416
198,0.0195503416
199,0.0293255119
200,0.0195503416
201,0.0195503416
202,0.0195503416
203,0.0293255119
204,0.0488758516
205,0.0879765415
206,0.0977517032
207,0.0782013654
208,0.0586510229
209,0.0684261989
210,0.0879765415
211,0.0782013654
212,0.0586510229
213,0.0586510229
214,0.0488758516
215,0.0391006832
216,0.0391006832
217,0.0293255119
218,0.0195503416
219,0.0097751703
220,0.0097751703
221,0.0097751703
222,0.0097751703
223,0.0000000000
224,0.0097751703
225,0.0000000000
226,0.0097751703
227,0.0097751703
228,0.0195503416
229,0.0293255119
230,0.0195503416
231,0.0195503416
232,0.0293255119
233,0.0391006832
234,0.0293255119
235,0.0586510229
236,0.0586510229
237,0.0684261989
238,0.0684261989
239,0.0782013654
240,0.1075268864
241,0.1075268864
242,0.1075268864
243,0.1075268864
244,0.1173020482
245,0.1173020482
246,0.1466275596
247,0.3616813421
248,0.3225806236
249,0.3128054618
250,0.2834799575
251,0.2639296054
252,0.2443792819
253,0.2150537729
254,0.2052785873
255,0.2052785873
256,0.1955034160
257,0.1955034160
258,0.1857282543
259,0.1857282543
260,0.1857282543
261,0.1759530782
262,0.2834799575
263,0.2639296054
264,0.2346040964
265,0.1955034160
266,0.1661779165
267,0.1466275596
268,0.1368523955
269,0.1270772218
270,0.1075268864
271,0.0977517032
272,0.1075268864
273,0.0977517032
274,0.0879765415
275,0.0879765415
276,0.0782013654
277,0.0782013654
278,0.0782013654
279,0.0782013654
280,0.0684261989
281,0.0684261989
282,0.0586510229
283,0.0586510229
284,0.0586510229
285,0.0586510229
286,0.0488758516
287,0.0586510229
288,0.0488758516
289,0.0488758516
290,0.0488758516
291,0.0391006832
292,0.0391006832
293,0.0391006832
294,0.0293255119
295,0.0391006832
296,0.0293255119
297,0.0391006832
298,0.0293255119
299,0.0293255119
300,0.0293255119
301,0.0293255119
302,0.0195503416
303,0.0195503416
304,0.0293255119
305,0.0293255119
306,0.0195503416
307,0.0293255119
308,0.1564027309
309,0.2248289346
310,0.3616813421
311,0.4789833545
312,0.4985337257
313,0.4789833545
314,0.3910068321
315,0.3225806236
316,0.4789833545
317,0.4007820129
318,0.3225806236
319,0.2737047910
320,0.2346040964
321,0.2052785873
322,0.1759530782
323,0.2932551193
324,0.2737047910
325,0.2248289346
326,0.2052785873
327,0.1759530782
328,0.1466275596
329,0.1173020482
330,0.0977517032
331,0.0782013654
332,0.0586510229
333,0.0488758516
334,0.0488758516
335,0.0391006832
336,0.0293255119
337,0.0293255119
338,0.0195503416
339,0.0195503416
340,0.0097751703
341,0.0097751703
342,0.0097751703
343,0.0097751703
344,0.0000000000
345,0.0097751703
346,0.0097751703
347,0.0097751703
348,0.0097751703
349,0.0097751703
350,0.0195503416
351,0.0195503416
352,0.0391006832
353,0.0391006832
354,0.0488758516
355,0.0586510229
356,0.0684261989
357,0.0586510229
358,0.0586510229
359,0.0586510229
360,0.0586510229
361,0.0586510229
362,0.0586510229
363,0.0782013654
364,0.0879765415
365,0.0782013654
366,0.2834799575
367,0.2443792819
368,0.2541544437
369,0.2443792819
370,0.2443792819
371,0.2541544437
372,0.2443792819
373,0.2346040964
374,0.2346040964
375,0.2443792819
376,0.2346040964
377,0.2248289346
378,0.2150537729
379,0.2052785873
380,0.2150537729
381,0.1857282543
382,0.1857282543
383,0.2150537729
384,0.1857282543
385,0.1955034160
386,0.3128054618
387,0.2834799575
388,0.2346040964
389,0.2052785873
390,0.1661779165
391,0.1368523955
392,0.1173020482
393,0.0977517032
394,0.0879765415
395,0.0782013654
396,0.0684261989
397,0.0586510229
398,0.0586510229
399,0.0488758516
400,0.0391006832
401,0.0293255119
402,0.0293255119
403,0.0293255119
404,0.0293255119
405,0.0293255119
406,0.0293255119
407,0.0293255119
408,0.0293255119
409,0.0293255119
410,0.0391006832
411,0.0391006832
412,0.0391006832
413,0.0391006832
414,0.0293255119
415,0.0391006832
416,0.0391006832
417,0.0391006832
418,0.0293255119
419,0.0293255119
420,0.0293255119
421,0.0293255119
422,0.0391006832
423,0.0391006832
424,0.0488758516
425,0.0488758516
426,0.0391006832
427,0.0293255119
428,0.0293255119
429,0.0293255119
430,0.0293255119
431,0.0293255119
432,0.0293255119
433,0.0293255119
434,0.0293255119
435,0.0195503416
436,0.0195503416
437,0.0195503416
438,0.0195503416
439,0.0195503416
440,0.0195503416
441,0.0195503416
442,0.0195503416
443,0.0195503416
444,0.0293255119
445,0.0293255119
446,0.0195503416
447,0.0195503416
448,0.0097751703
449,0.0195503416
450,0.0293255119
451,0.0195503416
452,0.0097751703
453,0.0195503416
454,0.0195503416
455,0.0195503416
456,0.0097751703
457,0.0097751703
458,0.0097751703
459,0.0097751703
460,0.0097751703
461,0.0097751703
462,0.0195503416
463,0.0293255119
464,0.0293255119
465,0.0195503416
466,0.0195503416
467,0.0293255119
468,0.0293255119
469,0.0293255119
470,0.0195503416
471,0.0293255119
472,0.0195503416
473,0.0195503416
474,0.0195503416
475,0.0097751703
476,0.0097751703
477,0.0097751703
478,0.0097751703
479,0.0097751703
480,0.0195503416
481,0.0097751703
482,0.0097751703
483,0.0097751703
484,0.0097751703
485,0.0000000000
486,0.0000000000
487,0.0000000000
488,0.0000000000
489,0.0000000000
490,0.0097751703
491,0.0097751703
492,0.0097751703
493,0.0195503416
494,0.0293255119
495,0.0293255119
496,0.0391006832
497,0.0391006832
498,0.0391006832
499,0.0391006832
500,0.0488758516
501,0.0586510229
502,0.0684261989
503,0.0684261989
504,0.0684261989
505,0.0782013654
506,0.0879765415
507,0.0879765415
508,0.0977517032
509,0.0977517032
510,0.0879765415
511,0.0977517032
512,0.3030303001
513,0.2834799575
514,0.2639296054
515,0.2834799575
516,0.2541544437
517,0.2443792819
518,0.2443792819
519,0.2248289346
520,0.2052785873
521,0.1955034160
522,0.1955034160
523,0.1955034160
524,0.3030303001
525,0.2834799575
526,0.2541544437
527,0.2150537729
528,0.1955034160
529,0.1759530782
530,0.1564027309
531,0.1368523955
532,0.1173020482
533,0.1075268864
534,0.0977517032
535,0.3030303001
536,0.2541544437
537,0.2248289346
538,0.2052785873
539,0.1759530782
540,0.1661779165
541,0.1661779165
542,0.1466275596
543,0.1466275596
544,0.1466275596
545,0.1270772218
546,0.1270772218
547,0.1270772218
548,0.1173020482
549,0.1075268864
550,0.1075268864
551,0.0977517032
552,0.0977517032
553,0.0977517032
554,0.0879765415
555,0.0879765415
556,0.0782013654
557,0.0782013654
558,0.0684261989
559,0.0782013654
560,0.0684261989
561,0.0684261989
562,0.0586510229
563,0.0684261989
564,0.0586510229
565,0.0586510229
566,0.0586510229
567,0.0586510229
568,0.0586510229
569,0.0586510229
570,0.0684261989
571,0.0684261989
572,0.0586510229
573,0.0684261989
574,0.0684261989
575,0.0684261989
576,0.0684261989
577,0.0684261989
578,0.0684261989
579,0.0586510229
580,0.0782013654
581,0.0782013654
582,0.0586510229
583,0.0684261989
584,0.0684261989
585,0.2052785873
586,0.2052785873
587,0.1759530782
588,0.1466275596
589,0.1173020482
590,0.0977517032
591,0.0782013654
592,0.0586510229
593,0.0586510229
594,0.0488758516
595,0.0488758516
596,0.0391006832
597,0.0391006832
598,0.0391006832
599,0.0391006832
600,0.0293255119
601,0.0293255119
602,0.0195503416
603,0.0195503416
604,0.0097751703
605,0.0097751703
606,0.0097751703
607,0.0195503416
608,0.0195503416
609,0.0195503416
610,0.0391006832
611,0.0488758516
612,0.0488758516
613,0.0391006832
614,0.0391006832
615,0.0293255119
616,0.0195503416
617,0.0195503416
618,0.0097751703
619,0.0097751703
620,0.0097751703
621,0.0000000000
622,0.0000000000
623,0.0000000000
624,0.0000000000
625,0.0000000000
626,0.0000000000
627,0.0000000000
628,0.0097751703
629,0.0097751703
630,0.0195503416
631,0.0195503416
632,0.0293255119
633,0.0391006832
634,0.0391006832
635,0.0488758516
636,0.0488758516
637,0.0488758516
638,0.0488758516
639,0.0488758516
640,0.0586510229
641,0.0586510229
642,0.0488758516
643,0.0586510229
644,0.0586510229
645,0.0586510229
646,0.0782013654
647,0.2639296054
648,0.2346040964
649,0.2150537729
650,0.2052785873
651,0.1759530782
652,0.1661779165
653,0.1759530782
654,0.1661779165
655,0.1759530782
656,0.2052785873
657,0.2834799575
658,0.2639296054
659,0.2443792819
660,0.2150537729
661,0.2248289346
662,0.2052785873
663,0.1857282543
664,0.1661779165
665,0.1564027309
666,0.1368523955
667,0.1270772218
668,0.1075268864
669,0.1270772218
670,0.1759530782
671,0.3030303001
672,0.2639296054
673,0.2541544437
674,0.2346040964
675,0.2248289346
676,0.2248289346
677,0.2150537729
678,0.1857282543
679,0.1661779165
680,0.1661779165
681,0.1466275596
682,0.1466275596
683,0.1368523955
684,0.1270772218
685,0.1075268864
686,0.0977517032
687,0.0977517032
688,0.0977517032
689,0.1075268864
690,0.0977517032
691,0.0879765415
692,0.0879765415
693,0.0977517032
694,0.0879765415
695,0.0782013654
696,0.0782013654
697,0.0684261989
698,0.0684261989
699,0.0684261989
700,0.0879765415
701,0.0782013654
702,0.0684261989
703,0.0586510229
704,0.0684261989
705,0.0684261989
706,0.0782013654
707,0.0684261989
708,0.0586510229
709,0.0586510229
710,0.0684261989
711,0.0586510229
712,0.0684261989
713,0.0684261989
714,0.0684261989
715,0.0684261989
716,0.0684261989
717,0.0586510229
718,0.0586510229
719,0.0488758516
720,0.0684261989
721,0.2150537729
722,0.3616813421
723,0.4203323364
724,0.3519061565
725,0.2932551193
726,0.2346040964
727,0.2052785873
728,0.1759530782
729,0.1368523955
730,0.1075268864
731,0.0977517032
732,0.0879765415
733,0.0684261989
734,0.0586510229
735,0.0586510229
736,0.0488758516
737,0.0391006832
738,0.0391006832
739,0.0293255119
740,0.0293255119
741,0.0293255119
742,0.0293255119
743,0.0195503416
744,0.0293255119
745,0.0195503416
746,0.0195503416
747,0.0195503416
748,0.0195503416
749,0.0195503416
750,0.0195503416
751,0.0195503416
752,0.0195503416
753,0.0195503416
754,0.0097751703
755,0.0097751703
756,0.0097751703
757,0.0097751703
758,0.0097751703
759,0.0195503416
760,0.0195503416
761,0.0097751703
762,0.0195503416
763,0.0195503416
764,0.0195503416
765,0.0195503416
766,0.0195503416
767,0.0195503416
768,0.0293255119
769,0.0391006832
770,0.0391006832
771,0.0293255119
772,0.0195503416
773,0.0195503416
774,0.0195503416
775,0.0097751703
776,0.0097751703
777,0.0097751703
778,0.0000000000
779,0.0000000000
780,0.0000000000
781,0.0000000000
782,0.0000000000
783,0.0000000000
784,0.0000000000
785,0.0000000000
786,0.0000000000
787,0.0000000000
788,0.0000000000
789,0.0000000000
790,0.0000000000
791,0.0000000000
792,0.0000000000
793,0.0000000000
794,0.0000000000
795,0.0000000000
796,0.0097751703
797,0.0195503416
798,0.0293255119
799,0.0391006832
800,0.0391006832
801,0.0488758516
802,0.0586510229
803,0.0586510229
804,0.0586510229
805,0.0586510229
806,0.0684261989
807,0.0684261989
808,0.0586510229
809,0.0684261989
810,0.0684261989
811,0.0782013654
812,0.0977517032
813,0.0879765415
814,0.0977517032
815,0.2932551193
816,0.2639296054
817,0.2639296054
818,0.2834799575
819,0.2834799575
820,0.2639296054
821,0.2639296054
822,0.2639296054
823,0.2443792819
824,0.2248289346
825,0.2443792819
826,0.2541544437
827,0.2639296054
828,0.2443792819
829,0.2541544437
830,0.2639296054
831,0.2932551193
832,0.2834799575
833,0.2737047910
834,0.2737047910
835,0.2737047910
836,0.2639296054
837,0.2541544437
838,0.2248289346
839,0.2346040964
840,0.2346040964
841,0.2150537729
842,0.2052785873
843,0.1857282543
844,0.1661779165
845,0.1661779165
846,0.1661779165
847,0.1661779165
848,0.3030303001
849,0.2834799575
850,0.2346040964
851,0.1955034160
852,0.1759530782
853,0.1564027309
854,0.1368523955
855,0.1075268864
856,0.0977517032
857,0.0977517032
858,0.2150537729
859,0.2443792819
860,0.2248289346
861,0.2443792819
862,0.2150537729
863,0.1857282543
864,0.1564027309
865,0.1368523955
866,0.1270772218
867,0.1075268864
868,0.2541544437
869,0.2541544437
870,0.2150537729
871,0.1857282543
872,0.1564027309
873,0.1270772218
874,0.1075268864
875,0.0879765415
876,0.0879765415
877,0.0782013654
878,0.0684261989
879,0.0586510229
880,0.0488758516
881,0.0488758516
882,0.0391006832
883,0.0391006832
884,0.0293255119
885,0.0293255119
886,0.0293255119
887,0.0293255119
888,0.0293255119
889,0.0391006832
890,0.0586510229
891,0.0684261989
892,0.2541544437
893,0.2248289346
894,0.1955034160
895,0.3128054618
896,0.4985337257
897,0.4594330310
898,0.3812316703
899,0.3128054618
900,0.2541544437
901,0.1955034160
902,0.1661779165
903,0.1368523955
904,0.1075268864
905,0.0977517032
906,0.0684261989
907,0.0586510229
908,0.0488758516
909,0.0391006832
910,0.0391006832
911,0.0391006832
912,0.0293255119
913,0.0293255119
914,0.0293255119
915,0.0391006832
916,0.0391006832
917,0.0391006832
918,0.0391006832
919,0.0293255119
920,0.0293255119
921,0.0293255119
922,0.0391006832
923,0.0391006832
924,0.0293255119
925,0.0195503416
926,0.0293255119
927,0.0195503416
928,0.0097751703
929,0.0097751703
930,0.0097751703
931,0.0195503416
932,0.0097751703
933,0.0097751703
934,0.0000000000
935,0.0000000000
936,0.0000000000
937,0.0000000000
938,0.0000000000
939,0.0000000000
940,0.0000000000
941,0.0097751703
942,0.0000000000
943,0.0195503416
944,0.0293255119
945,0.0391006832
946,0.0488758516
947,0.0586510229
948,0.0684261989
949,0.0684261989
950,0.0684261989
951,0.0684261989
952,0.0782013654
953,0.0782013654
954,0.0782013654
955,0.0782013654
956,0.0879765415
957,0.0879765415
958,0.0879765415
959,0.0977517032
960,0.0977517032
961,0.0879765415
962,0.1075268864
963,0.1075268864
964,0.1173020482
965,0.1466275596
966,0.2150537729
967,0.2737047910
968,0.2541544437
969,0.2443792819
970,0.2248289346
971,0.3030303001
972,0.3323558330
973,0.3616813421
974,0.3323558330
975,0.2932551193
976,0.2737047910
977,0.2443792819
978,0.2443792819
979,0.2248289346
980,0.2346040964
981,0.3616813421
982,0.3616813421
983,0.3519061565
984,0.2932551193
985,0.2834799575
986,0.4398827075
987,0.3910068321
988,0.3616813421
989,0.3030303001
990,0.2932551193
991,0.2443792819
992,0.2346040964
993,0.1955034160
994,0.1759530782
995,0.1661779165
996,0.1564027309
997,0.1466275596
998,0.1466275596
999,0.1368523955
1000,0.1270772218
1001,0.8211143493
1002,0.6549364089
1003,0.5278592109
1004,0.4203323364
1005,0.3616813421
1006,0.2932551193
1007,0.2443792819
1008,0.2346040964
1009,0.1955034160
1010,0.1759530782
1011,0.1466275596
1012,0.1466275596
1013,0.1173020482
1014,0.1075268864
1015,0.0879765415
1016,0.0879765415
1017,0.0977517032
1018,0.0782013654
1019,0.0684261989
1020,0.0586510229
1021,0.0586510229
1022,0.0586510229
1023,0.0488758516
1024,0.0488758516
1025,0.0391006832
1026,0.0391006832
1027,0.0391006832
1028,0.0293255119
1029,0.0391006832
1030,0.0391006832
1031,0.0391006832
1032,0.0391006832
1033,0.0391006832
1034,0.0293255119
1035,0.0293255119
1036,0.0391006832
1037,0.0488758516
1038,0.0586510229
1039,0.0488758516
1040,0.0391006832
1041,0.0391006832
1042,0.0293255119
1043,0.0293255119
1044,0.0293255119
1045,0.0391006832
1046,0.0391006832
1047,0.0391006832
1048,0.0293255119
1049,0.0293255119
1050,0.0293255119
1051,0.0293255119
1052,0.0195503416
1053,0.0195503416
1054,0.0195503416
1055,0.0195503416
1056,0.0293255119
1057,0.0195503416
1058,0.0293255119
1059,0.0293255119
1060,0.0293255119
1061,0.0293255119
1062,0.0195503416
1063,0.0195503416
1064,0.0195503416
1065,0.0097751703
1066,0.0195503416
1067,0.0097751703
1068,0.0097751703
1069,0.0097751703
1070,0.0097751703
1071,0.0097751703
1072,0.0097751703
1073,0.0097751703
1074,0.0097751703
1075,0.0097751703
1076,0.0097751703
1077,0.0097751703
1078,0.0195503416
1079,0.0195503416
1080,0.0293255119
1081,0.0391006832
1082,0.0293255119
1083,0.0293255119
1084,0.0293255119
1085,0.0782013654
1086,0.0782013654
1087,0.0879765415
1088,0.0879765415
1089,0.0977517032
1090,0.1075268864
1091,0.1075268864
1092,0.1075268864
1093,0.1270772218
1094,0.1270772218
1095,0.1173020482
1096,0.1075268864
1097,0.1075268864
1098,0.1075268864
1099,0.1173020482
1100,0.1270772218
1101,0.1564027309
1102,0.1661779165
1103,0.1857282543
1104,0.1759530782
1105,0.1955034160
1106,0.1759530782
1107,0.1661779165
1108,0.1466275596
1109,0.1466275596
1110,0.1466275596
1111,0.1466275596
1112,0.1368523955
1113,0.1270772218
1114,0.1173020482
1115,0.1173020482
1116,0.1075268864
1117,0.0977517032
1118,0.0977517032
1119,0.1075268864
1120,0.0977517032
1121,0.1075268864
1122,0.0977517032
1123,0.0879765415
1124,0.0879765415
1125,0.0782013654
1126,0.0782013654
1127,0.0879765415
1128,0.0684261989
1129,0.0684261989
1130,0.0684261989
1131,0.0684261989
1132,0.0684261989
1133,0.0684261989
1134,0.0586510229
1135,0.0684261989
1136,0.0684261989
1137,0.0586510229
1138,0.0684261989
1139,0.0586510229
1140,0.0488758516
1141,0.0391006832
1142,0.0391006832
1143,0.0293255119
1144,0.0293255119
1145,0.0391006832
1146,0.0488758516
1147,0.0391006832
1148,0.0488758516
1149,0.0391006832
1150,0.0391006832
1151,0.0488758516
1152,0.0684261989
1153,0.0684261989
1154,0.0586510229
1155,0.0684261989
1156,0.0684261989
1157,0.0684261989
1158,0.0684261989
1159,0.0684261989
1160,0.0684261989
1161,0.0586510229
1162,0.0488758516
1163,0.0488758516
1164,0.0488758516
1165,0.0488758516
1166,0.0488758516
1167,0.0488758516
1168,0.0391006832
1169,0.0391006832
1170,0.0391006832
1171,0.0586510229
1172,0.0391006832
1173,0.0488758516
1174,0.0488758516
1175,0.0391006832
1176,0.0293255119
1177,0.0293255119
1178,0.0391006832
1179,0.0293255119
1180,0.0293255119
1181,0.0195503416
1182,0.0293255119
1183,0.0293255119
1184,0.0195503416
1185,0.0293255119
1186,0.0293255119
1187,0.0293255119
1188,0.0293255119
1189,0.0293255119
1190,0.0293255119
1191,0.0293255119
1192,0.0391006832
1193,0.0391006832
1194,0.0391006832
1195,0.0293255119
1196,0.0293255119
1197,0.0391006832
1198,0.0293255119
1199,0.0293255119
1200,0.0293255119
1201,0.0293255119
1202,0.0293255119
1203,0.0195503416
1204,0.0195503416
1205,0.0195503416
1206,0.0293255119
1207,0.0293255119
1208,0.0293255119
1209,0.0293255119
1210,0.0293255119
1211,0.0195503416
1212,0.0195503416
1213,0.0195503416
1214,0.0097751703
1215,0.0097751703
1216,0.0097751703
1217,0.0195503416
1218,0.0097751703
1219,0.0097751703
1220,0.0097751703
1221,0.0000000000
1222,0.0097751703
1223,0.0000000000
1224,0.0000000000
1225,0.0000000000
1226,0.0000000000
1227,0.0000000000
1228,0.0000000000
1229,0.0000000000
1230,0.0000000000
1231,0.0097751703
1232,0.0097751703
1233,0.0097751703
1234,0.0195503416
1235,0.0195503416
1236,0.0195503416
1237,0.0293255119
1238,0.0293255119
1239,0.0293255119
1240,0.0391006832
1241,0.0488758516
1242,0.0488758516
1243,0.0586510229
1244,0.0586510229
1245,0.0684261989
1246,0.0782013654
1247,0.0684261989
1248,0.0782013654
1249,0.0879765415
1250,0.1173020482
1251,0.1075268864
1252,0.1173020482
1253,0.1270772218
1254,0.1270772218
1255,0.1368523955
1256,0.1368523955
1257,0.1270772218
1258,0.1270772218
1259,0.1270772218
1260,0.1173020482
1261,0.1075268864
1262,0.0977517032
1263,0.1075268864
1264,0.1368523955
1265,0.1270772218
1266,0.1270772218
1267,0.1270772218
1268,0.1075268864
1269,0.1173020482
1270,0.1075268864
1271,0.1173020482
1272,0.1075268864
1273,0.0977517032
1274,0.0879765415
1275,0.0782013654
1276,0.0782013654
1277,0.0782013654
1278,0.0782013654
1279,0.0684261989
1280,0.0684261989
1281,0.0586510229
1282,0.0488758516
1283,0.0488758516
1284,0.0684261989
1285,0.0782013654
1286,0.0684261989
1287,0.0684261989
1288,0.0879765415
1289,0.0879765415
1290,0.0782013654
1291,0.0684261989
1292,0.0684261989
1293,0.0782013654
1294,0.0684261989
1295,0.0782013654
1296,0.0684261989
1297,0.0684261989
1298,0.0684261989
1299,0.0586510229
1300,0.0586510229
1301,0.0586510229
1302,0.0488758516
1303,0.0586510229
1304,0.0488758516
1305,0.0488758516
1306,0.0488758516
1307,0.0391006832
1308,0.0391006832
1309,0.0391006832
1310,0.0391006832
1311,0.0391006832
1312,0.0391006832
1313,0.0293255119
1314,0.0195503416
1315,0.0293255119
1316,0.0293255119
1317,0.0391006832
1318,0.0391006832
1319,0.0293255119
1320,0.0293255119
1321,0.0195503416
1322,0.0195503416
1323,0.0195503416
1324,0.0293255119
1325,0.0293255119
1326,0.0293255119
1327,0.0293255119
1328,0.0391006832
1329,0.0391006832
1330,0.0391006832
1331,0.0684261989
1332,0.0684261989
1333,0.0684261989
1334,0.0586510229
1335,0.0488758516
1336,0.0488758516
1337,0.0391006832
1338,0.0488758516
1339,0.0391006832
1340,0.0391006832
1341,0.0488758516
1342,0.0488758516
1343,0.0391006832
1344,0.0391006832
1345,0.0488758516
1346,0.0488758516
1347,0.0391006832
1348,0.0391006832
1349,0.0391006832
1350,0.0391006832
1351,0.0391006832
1352,0.0293255119
1353,0.0293255119
1354,0.0293255119
1355,0.0293255119
1356,0.0195503416
1357,0.0195503416
1358,0.0195503416
1359,0.0195503416
1360,0.0195503416
1361,0.0195503416
1362,0.0195503416
1363,0.0195503416
1364,0.0195503416
1365,0.0195503416
1366,0.0097751703
1367,0.0097751703
1368,0.0097751703
1369,0.0097751703
1370,0.0000000000
1371,0.0000000000
1372,0.0000000000
1373,0.0000000000
1374,0.0000000000
1375,0.0000000000
1376,0.0000000000
1377,0.0000000000
1378,0.0000000000
1379,0.0000000000
1380,0.0097751703
1381,0.0097751703
1382,0.0195503416
1383,0.0195503416
1384,0.0195503416
1385,0.0293255119
1386,0.0293255119
1387,0.0293255119
1388,0.0293255119
1389,0.0391006832
1390,0.0391006832
1391,0.0586510229
1392,0.0586510229
1393,0.0684261989
1394,0.0684261989
1395,0.0782013654
1396,0.0879765415
1397,0.0977517032
1398,0.0879765415
1399,0.0879765415
1400,0.0977517032
1401,0.1075268864
1402,0.1466275596
1403,0.1564027309
1404,0.1759530782
1405,0.1857282543
1406,0.1955034160
1407,0.1955034160
1408,0.1857282543
1409,0.2150537729
1410,0.1955034160
1411,0.1857282543
1412,0.1955034160
1413,0.1661779165
1414,0.1661779165
1415,0.1661779165
1416,0.1661779165
1417,0.1466275596
1418,0.1368523955
1419,0.1270772218
1420,0.1173020482
1421,0.0977517032
1422,0.0977517032
1423,0.0977517032
1424,0.1075268864
1425,0.1173020482
1426,0.1173020482
1427,0.1075268864
1428,0.1075268864
1429,0.0977517032
1430,0.0977517032
1431,0.0977517032
1432,0.0879765415
1433,0.0782013654
1434,0.0684261989
1435,0.0684261989
1436,0.0684261989
1437,0.0586510229
1438,0.0586510229
1439,0.0586510229
1440,0.0782013654
1441,0.0782013654
1442,0.0782013654
1443,0.0879765415
1444,0.0879765415
1445,0.0977517032
1446,0.1173020482
1447,0.1075268864
1448,0.1270772218
1449,0.1270772218
1450,0.1173020482
1451,0.1075268864
1452,0.0977517032
1453,0.0977517032
1454,0.0879765415
1455,0.0879765415
1456,0.0879765415
1457,0.0977517032
1458,0.0879765415
1459,0.0879765415
1460,0.0782013654
1461,0.0782013654
1462,0.0684261989
1463,0.0782013654
1464,0.0684261989
1465,0.0684261989
1466,0.0684261989
1467,0.0684261989
1468,0.0684261989
1469,0.0684261989
1470,0.0684261989
1471,0.0782013654
1472,0.0879765415
1473,0.0782013654
1474,0.0782013654
1475,0.0684261989
1476,0.0684261989
1477,0.0586510229
1478,0.0586510229
1479,0.0488758516
1480,0.0586510229
1481,0.0684261989
1482,0.0586510229
1483,0.0586510229
1484,0.0684261989
1485,0.0586510229
1486,0.0684261989
1487,0.0586510229
1488,0.0488758516
1489,0.0586510229
1490,0.0488758516
1491,0.0488758516
1492,0.0391006832
1493,0.0488758516
1494,0.0586510229
1495,0.0684261989
1496,0.0684261989
1497,0.0586510229
1498,0.0488758516
1499,0.0488758516
1500,0.0488758516
1501,0.0391006832
1502,0.0293255119
1503,0.0293255119
1504,0.0293255119
1505,0.0293255119
1506,0.0293255119
1507,0.0293255119
1508,0.0391006832
1509,0.0293255119
1510,0.0488758516
1511,0.0391006832
1512,0.0391006832
1513,0.0391006832
1514,0.0293255119
1515,0.0293255119
1516,0.0293255119
1517,0.0391006832
1518,0.0293255119
1519,0.0195503416
1520,0.0195503416
1521,0.0195503416
1522,0.0195503416
1523,0.0195503416
1524,0.0195503416
1525,0.0097751703
1526,0.0097751703
1527,0.0097751703
1528,0.0000000000
1529,0.0097751703
1530,0.0000000000
1531,0.0000000000
1532,0.0000000000
1533,0.0000000000
1534,0.0097751703
1535,0.0097751703
1536,0.0097751703
1537,0.0195503416
1538,0.0293255119
1539,0.0293255119
1540,0.0293255119
1541,0.0293255119
1542,0.0391006832
1543,0.0488758516
1544,0.0586510229
1545,0.0586510229
1546,0.0782013654
1547,0.0782013654
1548,0.0782013654
1549,0.0977517032
1550,0.1075268864
1551,0.1173020482
1552,0.1075268864
1553,0.1173020482
1554,0.1270772218
1555,0.1270772218
1556,0.1466275596
1557,0.1564027309
1558,0.1564027309
1559,0.1564027309
1560,0.1564027309
1561,0.1564027309
1562,0.1661779165
1563,0.1759530782
1564,0.1661779165
1565,0.1759530782
1566,0.1661779165
1567,0.1466275596
1568,0.1466275596
1569,0.1466275596
1570,0.1368523955
1571,0.1270772218
1572,0.1368523955
1573,0.1270772218
1574,0.1368523955
1575,0.1270772218
1576,0.1075268864
1577,0.1075268864
1578,0.0977517032
1579,0.0977517032
1580,0.0782013654
1581,0.0879765415
1582,0.0782013654
1583,0.0879765415
1584,0.0782013654
1585,0.0782013654
1586,0.0684261989
1587,0.0879765415
1588,0.0879765415
1589,0.0782013654
1590,0.0684261989
1591,0.0684261989
1592,0.0684261989
1593,0.0684261989
1594,0.0782013654
1595,0.0879765415
1596,0.0782013654
1597,0.0977517032
1598,0.1075268864
1599,0.0977517032
1600,0.0977517032
1601,0.1075268864
1602,0.0977517032
1603,0.0879765415
1604,0.0977517032
1605,0.0782013654
1606,0.0977517032
1607,0.1075268864
1608,0.1075268864
1609,0.0977517032
1610,0.0879765415
1611,0.0782013654
1612,0.0684261989
1613,0.0586510229
1614,0.0879765415
1615,0.0684261989
1616,0.0586510229
1617,0.0586510229
1618,0.0684261989
1619,0.0782013654
1620,0.0684261989
1621,0.0684261989
1622,0.0684261989
1623,0.0684261989
1624,0.0782013654
1625,0.0684261989
1626,0.0586510229
1627,0.0586510229
1628,0.0586510229
1629,0.0488758516
1630,0.0488758516
1631,0.0488758516
1632,0.0586510229
1633,0.0488758516
1634,0.0391006832
1635,0.0391006832
1636,0.0488758516
1637,0.0391006832
1638,0.0488758516
1639,0.0488758516
1640,0.0488758516
1641,0.0488758516
1642,0.0488758516
1643,0.0488758516
1644,0.0586510229
1645,0.0488758516
1646,0.0391006832
1647,0.0293255119
1648,0.0195503416
1649,0.0195503416
1650,0.0097751703
1651,0.0195503416
1652,0.0293255119
1653,0.0293255119
1654,0.0293255119
1655,0.0195503416
1656,0.0195503416
1657,0.0097751703
1658,0.0097751703
1659,0.0097751703
1660,0.0097751703
1661,0.0097751703
1662,0.0097751703
1663,0.0097751703
1664,0.0097751703
1665,0.0000000000
1666,0.0097751703
1667,0.0097751703
1668,0.0195503416
1669,0.0195503416
1670,0.0195503416
1671,0.0195503416
1672,0.0293255119
1673,0.0391006832
1674,0.0488758516
1675,0.0586510229
1676,0.0488758516
1677,0.0684261989
1678,0.0879765415
1679,0.0684261989
1680,0.0782013654
1681,0.0684261989
1682,0.0782013654
1683,0.0782013654
1684,0.0879765415
1685,0.0977517032
1686,0.0977517032
1687,0.1075268864
1688,0.1075268864
1689,0.1173020482
1690,0.1466275596
1691,0.1759530782
1692,0.1759530782
1693,0.1955034160
1694,0.1955034160
1695,0.2052785873
1696,0.1955034160
1697,0.1857282543
1698,0.1661779165
1699,0.1857282543
1700,0.1759530782
1701,0.1857282543
1702,0.1857282543
1703,0.1955034160
1704,0.1955034160
1705,0.1857282543
1706,0.1661779165
1707,0.1466275596
1708,0.1466275596
1709,0.1564027309
1710,0.1368523955
1711,0.1270772218
1712,0.1466275596
1713,0.1270772218
1714,0.1173020482
1715,0.1173020482
1716,0.1270772218
1717,0.1075268864
1718,0.1075268864
1719,0.1075268864
1720,0.1075268864
1721,0.0977517032
1722,0.0879765415
1723,0.0782013654
1724,0.0879765415
1725,0.0782013654
1726,0.0879765415
1727,0.0684261989
1728,0.0684261989
1729,0.0586510229
1730,0.0586510229
1731,0.0586510229
1732,0.0586510229
1733,0.0684261989
1734,0.0684261989
1735,0.0586510229
1736,0.0684261989
1737,0.0684261989
1738,0.0879765415
1739,0.0879765415
1740,0.1173020482
1741,0.1270772218
1742,0.1173020482
1743,0.1075268864
1744,0.1075268864
1745,0.1173020482
1746,0.1173020482
1747,0.1173020482
1748,0.1270772218
1749,0.1075268864
1750,0.0977517032
1751,0.1075268864
1752,0.0977517032
1753,0.0879765415
1754,0.0782013654
1755,0.0782013654
1756,0.0879765415
1757,0.0782013654
1758,0.0782013654
1759,0.0879765415
1760,0.0782013654
1761,0.0782013654
1762,0.0586510229
1763,0.0684261989
1764,0.0488758516
1765,0.0391006832
1766,0.0488758516
1767,0.0391006832
1768,0.0391006832
1769,0.0391006832
1770,0.0488758516
1771,0.0684261989
1772,0.0586510229
1773,0.0782013654
1774,0.0782013654
1775,0.0782013654
1776,0.0879765415
1777,0.0782013654
1778,0.0684261989
1779,0.0684261989
1780,0.0684261989
1781,0.0879765415
1782,0.0782013654
1783,0.0684261989
1784,0.0684261989
1785,0.0586510229
1786,0.0488758516
1787,0.0488758516
1788,0.0391006832
1789,0.0391006832
1790,0.0293255119
1791,0.0293255119
1792,0.0391006832
1793,0.0293255119
1794,0.0195503416
1795,0.0195503416
1796,0.0195503416
1797,0.0195503416
1798,0.0195503416
1799,0.0195503416
1800,0.0097751703
1801,0.0000000000
1802,0.0097751703
1803,0.0000000000
1804,0.0000000000
1805,0.0000000000
1806,0.0000000000
1807,0.0097751703
1808,0.0097751703
1809,0.0097751703
1810,0.0293255119
1811,0.0391006832
1812,0.0488758516
1813,0.0586510229
1814,0.0488758516
1815,0.0586510229
1816,0.0782013654
1817,0.0879765415
1818,0.0879765415
1819,0.1075268864
1820,0.0879765415
1821,0.0879765415
1822,0.1075268864
1823,0.0977517032
1824,0.1270772218
1825,0.1368523955
1826,0.1270772218
1827,0.1173020482
1828,0.1270772218
1829,0.1270772218
1830,0.1368523955
1831,0.1466275596
1832,0.1661779165
1833,0.1955034160
1834,0.1759530782
1835,0.2248289346
1836,0.2639296054
1837,0.2541544437
1838,0.2443792819
1839,0.2346040964
1840,0.2150537729
1841,0.2248289346
1842,0.2248289346
1843,0.2346040964
1844,0.2052785873
1845,0.1759530782
1846,0.1759530782
1847,0.1661779165
1848,0.1466275596
1849,0.1466275596
1850,0.1368523955
1851,0.1368523955
1852,0.1270772218
1853,0.1466275596
1854,0.1368523955
1855,0.1368523955
1856,0.1270772218
1857,0.1075268864
1858,0.0977517032
1859,0.0879765415
1860,0.0879765415
1861,0.0879765415
1862,0.0782013654
1863,0.0879765415
1864,0.0782013654
1865,0.0782013654
1866,0.0977517032
1867,0.0879765415
1868,0.0782013654
1869,0.0782013654
1870,0.0782013654
1871,0.0684261989
1872,0.0586510229
1873,0.0586510229
1874,0.0586510229
1875,0.0586510229
1876,0.0684261989
1877,0.0684261989
1878,0.0586510229
1879,0.0586510229
1880,0.0782013654
1881,0.0684261989
1882,0.0684261989
1883,0.0684261989
1884,0.0684261989
1885,0.0782013654
1886,0.0684261989
1887,0.0586510229
1888,0.0586510229
1889,0.0586510229
1890,0.0586510229
1891,0.0488758516
1892,0.0586510229
1893,0.0586510229
1894,0.0586510229
1895,0.0488758516
1896,0.0488758516
1897,0.0488758516
1898,0.0488758516
1899,0.0391006832
1900,0.0488758516
1901,0.0488758516
1902,0.0293255119
1903,0.0293255119
1904,0.0391006832
1905,0.0391006832
1906,0.0391006832
1907,0.0391006832
1908,0.0391006832
1909,0.0488758516
1910,0.0391006832
1911,0.0391006832
1912,0.0293255119
1913,0.0488758516
1914,0.0391006832
1915,0.0293255119
1916,0.0293255119
1917,0.0293255119
1918,0.0195503416
1919,0.0195503416
1920,0.0195503416
1921,0.0097751703
1922,0.0097751703
1923,0.0097751703
1924,0.0293255119
1925,0.0293255119
1926,0.0293255119
1927,0.0293255119
1928,0.0195503416
1929,0.0195503416
1930,0.0195503416
1931,0.0097751703
1932,0.0097751703
1933,0.0097751703
1934,0.0097751703
1935,0.0097751703
1936,0.0000000000
1937,0.0097751703
1938,0.0000000000
1939,0.0097751703
1940,0.0000000000
1941,0.0000000000
1942,0.0000000000
1943,0.0000000000
1944,0.0097751703
1945,0.0097751703
1946,0.0097751703
1947,0.0097751703
1948,0.0195503416
1949,0.0195503416
1950,0.0293255119
1951,0.0293255119
1952,0.0293255119
1953,0.0488758516
1954,0.0391006832
1955,0.0391006832
1956,0.0391006832
1957,0.0488758516
1958,0.0586510229
1959,0.0586510229
1960,0.0684261989
1961,0.0782013654
1962,0.0684261989
1963,0.0977517032
1964,0.0977517032
1965,0.1075268864
1966,0.1075268864
1967,0.1075268864
1968,0.1075268864
1969,0.1075268864
1970,0.1075268864
1971,0.1075268864
1972,0.1173020482
1973,0.1075268864
1974,0.1075268864
1975,0.0879765415
1976,0.1075268864
1977,0.0977517032
1978,0.1075268864
1979,0.0977517032
1980,0.1564027309
1981,0.1857282543
1982,0.1857282543
1983,0.2150537729
1984,0.1955034160
1985,0.1857282543
1986,0.2443792819
1987,0.2346040964
1988,0.2052785873
1989,0.1857282543
1990,0.1661779165
1991,0.1466275596
1992,0.1368523955
1993,0.1173020482
1994,0.1173020482
1995,0.1466275596
1996,0.1466275596
1997,0.1368523955
1998,0.1173020482
1999,0.1075268864
2000,0.0977517032
2001,1.0361680984
2002,0.8308895111
2003,0.6647116661
2004,0.5669599056
2005,0.4692081928
2006,0.3910068321
2007,0.3421309947
2008,0.3323558330
2009,0.3128054618
2010,0.2639296054
2011,0.2443792819
2012,0.2346040964
2013,0.2150537729
2014,0.1955034160
2015,0.1857282543
2016,0.1857282543
2017,0.1564027309
2018,0.1466275596
2019,0.1564027309
2020,0.1466275596
2021,0.1270772218
2022,0.1368523955
2023,0.1368523955
2024,0.1270772218
2025,0.1270772218
2026,0.1270772218
2027,0.1270772218
2028,0.1173020482
2029,0.1270772218
2030,0.1270772218
2031,0.1173020482
2032,0.1075268864
2033,0.1173020482
2034,0.1075268864
2035,0.0977517032
2036,0.1075268864
2037,0.0977517032
2038,0.0977517032
2039,0.0977517032
2040,0.0879765415
2041,0.0879765415
2042,0.0782013654
2043,0.0782013654
2044,0.1075268864
2045,0.1075268864
2046,0.1075268864
2047,0.1075268864
2048,0.1075268864
2049,0.0977517032
2050,0.0879765415
2051,0.1173020482
2052,0.1075268864
2053,0.0977517032
2054,0.0977517032
2055,0.0977517032
2056,0.1270772218
2057,0.1173020482
2058,0.1075268864
2059,0.0977517032
2060,0.1075268864
2061,0.1075268864
2062,0.1368523955
2063,0.1270772218
2064,0.1075268864
2065,0.1173020482
2066,0.1173020482
2067,0.1173020482
2068,0.1075268864
2069,0.1173020482
2070,0.1173020482
2071,0.1075268864
2072,0.1075268864
2073,0.0977517032
2074,0.0977517032
2075,0.0879765415
2076,0.0879765415
2077,0.1075268864
2078,0.0977517032
2079,0.0879765415
2080,0.0977517032
2081,0.0879765415
2082,0.0977517032
2083,0.0879765415
2084,0.0782013654
2085,0.0684261989
2086,0.0684261989
2087,0.0586510229
2088,0.0586510229
2089,0.0684261989
2090,0.0782013654
2091,0.0879765415
2092,0.0977517032
2093,0.0879765415
2094,0.0879765415
2095,0.0977517032
2096,0.0977517032
2097,0.0977517032
2098,0.0879765415
2099,0.0879765415
2100,0.1075268864
2101,0.1075268864
2102,0.0977517032
2103,0.1075268864
2104,0.1075268864
2105,0.0977517032
2106,0.1075268864
2107,0.1075268864
2108,0.1075268864
2109,0.1173020482
2110,0.1173020482
2111,0.1270772218
2112,0.1368523955
2113,0.1466275596
2114,0.1564027309
2115,0.1564027309
2116,0.1661779165
2117,0.1857282543
2118,0.1661779165
2119,0.1955034160
2120,0.1955034160
2121,0.2150537729
2122,0.2248289346
2123,0.2248289346
2124,0.2248289346
2125,0.2248289346
2126,0.2248289346
2127,0.2443792819
2128,0.2346040964
2129,0.2248289346
2130,0.2248289346
2131,0.2150537729
2132,0.2443792819
2133,0.2346040964
2134,0.2248289346
2135,0.2639296054
2136,0.2248289346
2137,0.2052785873
2138,0.2150537729
2139,0.2052785873
2140,0.2052785873
2141,0.1955034160
2142,0.1759530782
2143,0.1955034160
2144,0.1857282543
2145,0.1661779165
2146,0.1661779165
2147,0.1759530782
2148,0.1564027309
2149,0.1857282543
2150,0.1661779165
2151,0.1466275596
2152,0.1564027309
2153,0.1368523955
2154,0.1466275596
2155,0.1466275596
2156,0.1466275596
2157,0.1661779165
2158,0.1368523955
2159,0.1270772218
2160,0.1368523955
2161,0.1368523955
2162,0.1368523955
2163,0.1270772218
2164,0.1173020482
2165,0.1368523955
2166,0.1270772218
2167,0.1173020482
2168,0.1173020482
2169,0.1368523955
2170,0.1270772218
2171,0.1075268864
2172,0.1075268864
2173,0.1075268864
2174,0.0977517032
2175,0.0977517032
2176,0.0879765415
2177,0.0879765415
2178,0.0977517032
2179,0.0977517032
2180,0.1075268864
2181,0.1075268864
2182,0.1075268864
2183,0.1075268864
2184,0.0977517032
2185,0.1173020482
2186,0.0977517032
2187,0.1173020482
2188,0.1173020482
2189,0.1173020482
2190,0.1075268864
2191,0.1173020482
2192,0.1173020482
2193,0.1075268864
2194,0.1368523955
2195,0.1368523955
2196,0.1368523955
2197,0.1270772218
2198,0.1270772218
2199,0.1270772218
2200,0.1368523955
2201,0.1270772218
2202,0.1270772218
2203,0.1075268864
2204,0.1368523955
2205,0.1466275596
2206,0.1759530782
2207,0.1857282543
2208,0.1955034160
2209,0.2052785873
2210,0.2443792819
2211,0.2052785873
2212,0.2052785873
2213,0.1857282543
2214,0.1857282543
2215,0.1857282543
2216,0.1564027309
2217,0.1466275596
2218,0.1466275596
2219,0.1466275596
2220,0.1270772218
2221,0.1173020482
2222,0.1173020482
2223,0.1173020482
2224,0.1075268864
2225,0.0977517032
2226,0.0977517032
2227,0.1075268864
2228,0.0977517032
2229,0.0879765415
2230,0.0879765415
2231,0.0879765415
2232,0.0977517032
2233,0.1075268864
2234,0.1075268864
2235,0.0977517032
2236,0.1173020482
2237,0.1173020482
2238,0.1173020482
2239,0.1075268864
2240,0.1173020482
2241,0.1466275596
2242,0.1466275596
2243,0.1955034160
2244,0.1857282543
2245,0.2052785873
2246,0.1857282543
2247,0.2052785873
2248,0.1955034160
2249,0.1857282543
2250,0.2150537729
2251,0.1857282543
2252,0.2052785873
2253,0.1955034160
2254,0.1955034160
2255,0.1759530782
2256,0.1955034160
2257,0.1857282543
2258,0.1857282543
2259,0.1955034160
2260,0.1857282543
2261,0.1857282543
2262,0.2248289346
2263,0.2737047910
2264,0.3421309947
2265,0.3616813421
2266,0.4203323364
2267,0.4007820129
2268,0.3910068321
2269,0.4301075458
2270,0.3910068321
2271,0.3519061565
2272,0.3714565038
2273,0.3225806236
2274,0.2932551193
2275,0.3128054618
2276,0.3225806236
2277,0.3421309947
2278,0.3128054618
2279,0.3030303001
2280,0.2932551193
2281,0.3030303001
2282,0.3128054618
2283,0.3225806236
2284,0.2834799575
2285,0.2834799575
2286,0.2932551193
2287,0.2639296054
2288,0.2443792819
2289,0.2248289346
2290,0.2052785873
2291,0.1857282543
2292,0.1661779165
2293,0.1661779165
2294,0.1661779165
2295,0.1564027309
2296,0.1759530782
2297,0.1564027309
2298,0.1368523955
2299,0.1270772218
2300,0.1270772218
2301,0.1466275596
2302,0.1661779165
2303,0.1466275596
2304,0.1466275596
2305,0.1368523955
2306,0.1368523955
2307,0.1270772218
2308,0.1173020482
2309,0.1173020482
2310,0.1075268864
2311,0.1270772218
2312,0.1173020482
2313,0.1075268864
2314,0.1075268864
2315,0.1075268864
2316,0.1075268864
2317,0.0977517032
2318,0.1075268864
2319,0.1173020482
2320,0.1564027309
2321,0.1759530782
2322,0.1661779165
2323,0.1661779165
2324,0.1564027309
2325,0.1466275596
2326,0.1466275596
2327,0.1466275596
2328,0.1466275596
2329,0.1564027309
2330,0.1661779165
2331,0.1564027309
2332,0.1466275596
2333,0.1270772218
2334,0.1173020482
2335,0.1270772218
2336,0.1173020482
2337,0.1270772218
2338,0.1075268864
2339,0.1270772218
2340,0.1075268864
2341,0.1466275596
2342,0.1270772218
2343,0.1368523955
2344,0.1270772218
2345,0.1173020482
2346,0.1075268864
2347,0.1075268864
2348,0.1075268864
2349,0.1075268864
2350,0.1173020482
2351,0.1075268864
2352,0.1173020482
2353,0.1075268864
2354,0.1075268864
2355,0.1075268864
2356,0.0977517032
2357,0.0977517032
2358,0.1075268864
2359,0.0977517032
2360,0.0879765415
2361,0.0782013654
2362,0.0879765415
2363,0.0977517032
2364,0.0879765415
2365,0.0782013654
2366,0.0782013654
2367,0.0782013654
2368,0.0782013654
2369,0.0684261989
2370,0.0586510229
2371,0.0586510229
2372,0.0684261989
2373,0.0684261989
2374,0.0684261989
2375,0.0879765415
2376,0.0782013654
2377,0.0879765415
2378,0.0977517032
2379,0.0977517032
2380,0.0879765415
2381,0.0879765415
2382,0.0782013654
2383,0.0782013654
2384,0.0684261989
2385,0.0879765415
2386,0.0977517032
2387,0.1075268864
2388,0.1075268864
2389,0.1075268864
2390,0.0977517032
2391,0.1173020482
2392,0.1075268864
2393,0.1270772218
2394,0.1173020482
2395,0.1173020482
2396,0.1173020482
2397,0.1173020482
2398,0.1173020482
2399,0.1075268864
2400,0.1075268864
2401,0.1173020482
2402,0.1173020482
2403,0.1173020482
2404,0.1075268864
2405,0.1173020482
2406,0.1173020482
2407,0.1173020482
2408,0.1270772218
2409,0.1368523955
2410,0.1368523955
2411,0.1857282543
2412,0.2639296054
2413,0.2932551193
2414,0.2834799575
2415,0.2834799575
2416,0.2541544437
2417,0.2541544437
2418,0.2443792819
2419,0.2541544437
2420,0.2541544437
2421,0.2248289346
2422,0.2052785873
2423,0.2052785873
2424,0.2052785873
2425,0.1857282543
2426,0.2150537729
2427,0.2150537729
2428,0.1955034160
2429,0.1857282543
2430,0.1857282543
2431,0.1857282543
2432,0.1466275596
2433,0.1466275596
2434,0.1368523955
2435,0.1466275596
2436,0.1564027309
2437,0.1368523955
2438,0.1173020482
2439,0.1368523955
2440,0.1466275596
2441,0.1466275596
2442,0.1368523955
2443,0.1466275596
2444,0.1368523955
2445,0.1173020482
2446,0.1173020482
2447,0.1173020482
2448,0.1075268864
2449,0.0977517032
2450,0.0879765415
2451,0.0782013654
2452,0.0782013654
2453,0.0782013654
2454,0.0782013654
2455,0.0684261989
2456,0.0782013654
2457,0.0879765415
2458,0.0879765415
2459,0.1075268864
2460,0.1075268864
2461,0.1075268864
2462,0.0977517032
2463,0.0879765415
2464,0.0879765415
2465,0.0782013654
2466,0.0782013654
2467,0.0684261989
2468,0.0782013654
2469,0.0684261989
2470,0.0782013654
2471,0.0684261989
2472,0.0684261989
2473,0.0684261989
2474,0.0684261989
2475,0.0684261989
2476,0.0684261989
2477,0.0684261989
2478,0.0684261989
2479,0.0684261989
2480,0.0684261989
2481,0.0586510229
2482,0.0684261989
2483,0.0684261989
2484,0.0782013654
2485,0.0782013654
2486,0.0684261989
2487,0.0782013654
2488,0.0782013654
2489,0.0782013654
2490,0.0782013654
2491,0.0684261989
2492,0.0684261989
2493,0.0684261989
2494,0.0684261989
2495,0.0684261989
2496,0.0782013654
2497,0.0879765415
2498,0.0879765415
2499,0.0977517032
2500,0.0977517032
2501,0.0977517032
2502,0.1075268864
2503,0.1173020482
2504,0.1368523955
2505,0.1466275596
2506,0.1173020482
2507,0.1368523955
2508,0.1270772218
2509,0.1368523955
2510,0.1173020482
2511,0.1270772218
2512,0.1270772218
2513,0.1270772218
2514,0.1270772218
2515,0.1075268864
2516,0.0977517032
2517,0.0977517032
2518,0.0977517032
2519,0.0977517032
2520,0.0977517032
2521,0.0977517032
2522,0.0879765415
2523,0.0782013654
2524,0.1075268864
2525,0.0977517032
2526,0.1075268864
2527,0.1173020482
2528,0.1173020482
2529,0.1173020482
2530,0.1270772218
2531,0.1270772218
2532,0.1368523955
2533,0.1270772218
2534,0.1466275596
2535,0.1564027309
2536,0.1466275596
2537,0.1368523955
2538,0.1270772218
2539,0.1368523955
2540,0.1368523955
2541,0.1368523955
2542,0.1368523955
2543,0.1466275596
2544,0.1368523955
2545,0.1661779165
2546,0.1564027309
2547,0.1661779165
2548,0.1661779165
2549,0.1661779165
2550,0.1564027309
2551,0.1857282543
2552,0.2052785873
2553,0.2639296054
2554,0.3128054618
2555,0.3030303001
2556,0.2932551193
2557,0.2932551193
2558,0.2932551193
2559,0.2834799575
2560,0.3323558330
2561,0.3030303001
2562,0.2932551193
2563,0.2737047910
2564,0.2932551193
2565,0.3030303001
2566,0.2639296054
2567,0.2346040964
2568,0.2443792819
2569,0.2443792819
2570,0.2150537729
2571,0.1857282543
2572,0.1661779165
2573,0.1564027309
2574,0.1466275596
2575,0.1466275596
2576,0.1466275596
2577,0.1368523955
2578,0.1270772218
2579,0.1173020482
2580,0.1270772218
2581,0.1270772218
2582,0.1368523955
2583,0.1466275596
2584,0.1466275596
2585,0.1466275596
2586,0.1368523955
2587,0.1466275596
2588,0.1368523955
2589,0.1564027309
2590,0.1368523955
2591,0.1173020482
2592,0.1270772218
2593,0.1075268864
2594,0.0977517032
2595,0.0977517032
2596,0.0879765415
2597,0.0977517032
2598,0.1075268864
2599,0.1368523955
2600,0.1466275596
2601,0.1270772218
2602,0.1270772218
2603,0.1173020482
2604,0.1075268864
2605,0.1173020482
2606,0.1270772218
2607,0.1075268864
2608,0.0977517032
2609,0.0879765415
2610,0.1075268864
2611,0.0977517032
2612,0.0879765415
2613,0.0782013654
2614,0.0782013654
2615,0.0782013654
2616,0.0684261989
2617,0.0782013654
2618,0.0684261989
2619,0.0684261989
2620,0.0684261989
2621,0.0782013654
2622,0.0782013654
2623,0.0879765415
2624,0.0782013654
2625,0.0782013654
2626,0.0684261989
2627,0.0684261989
2628,0.0586510229
2629,0.0586510229
2630,0.0586510229
2631,0.0782013654
2632,0.0684261989
2633,0.0684261989
2634,0.0782013654
2635,0.0684261989
2636,0.0782013654
2637,0.0879765415
2638,0.0879765415
2639,0.0782013654
2640,0.0782013654
2641,0.0879765415
2642,0.0782013654
2643,0.0879765415
2644,0.0782013654
2645,0.0879765415
2646,0.0879765415
2647,0.0879765415
2648,0.0782013654
2649,0.0977517032
2650,0.0879765415
2651,0.0977517032
2652,0.0879765415
2653,0.0879765415
2654,0.0879765415
2655,0.0782013654
2656,0.0879765415
2657,0.0977517032
2658,0.0879765415
2659,0.0684261989
2660,0.0879765415
2661,0.0879765415
2662,0.0684261989
2663,0.0684261989
2664,0.0684261989
2665,0.0684261989
2666,0.0586510229
2667,0.0586510229
2668,0.0586510229
2669,0.0586510229
2670,0.0586510229
2671,0.0488758516
2672,0.0488758516
2673,0.0586510229
2674,0.0586510229
2675,0.0586510229
2676,0.0684261989
2677,0.0684261989
2678,0.0586510229
2679,0.0586510229
2680,0.0586510229
2681,0.0782013654
2682,0.0782013654
2683,0.0879765415
2684,0.0879765415
2685,0.0782013654
2686,0.0782013654
2687,0.0977517032
2688,0.0977517032
2689,0.1173020482
2690,0.1368523955
2691,0.1466275596
2692,0.1466275596
2693,0.1368523955
2694,0.1368523955
2695,0.1368523955
2696,0.1564027309
2697,0.1466275596
2698,0.1368523955
2699,0.1466275596
2700,0.1466275596
2701,0.1857282543
2702,0.1955034160
2703,0.1759530782
2704,0.1759530782
2705,0.1661779165
2706,0.1466275596
2707,0.1661779165
2708,0.1759530782
2709,0.1759530782
2710,0.1759530782
2711,0.1955034160
2712,0.1857282543
2713,0.2150537729
2714,0.2541544437
2715,0.3714565038
2716,0.4105571746
2717,0.4105571746
2718,0.4301075458
2719,0.4496578693
2720,0.4203323364
2721,0.3812316703
2722,0.3812316703
2723,0.3421309947
2724,0.3225806236
2725,0.3030303001
2726,0.2834799575
2727,0.2443792819
2728,0.2443792819
2729,0.2737047910
2730,0.2541544437
2731,0.2541544437
2732,0.2541544437
2733,0.2346040964
2734,0.2052785873
2735,0.1759530782
2736,0.1661779165
2737,0.1564027309
2738,0.1466275596
2739,0.1661779165
2740,0.1661779165
2741,0.1466275596
2742,0.1466275596
2743,0.1564027309
2744,0.1466275596
2745,0.1564027309
2746,0.1661779165
2747,0.1368523955
2748,0.1564027309
2749,0.1661779165
2750,0.1564027309
2751,0.1564027309
2752,0.1368523955
2753,0.1466275596
2754,0.1270772218
2755,0.1075268864
2756,0.1075268864
2757,0.1075268864
2758,0.1075268864
2759,0.1075268864
2760,0.0977517032
2761,0.0977517032
2762,0.1075268864
2763,0.1075268864
2764,0.0977517032
2765,0.0977517032
2766,0.0977517032
2767,0.1075268864
2768,0.1173020482
2769,0.1075268864
2770,0.0977517032
2771,0.0977517032
2772,0.0977517032
2773,0.0879765415
2774,0.0879765415
2775,0.0977517032
2776,0.0977517032
2777,0.0977517032
2778,0.0977517032
2779,0.0879765415
2780,0.0977517032
2781,0.1075268864
2782,0.1075268864
2783,0.0977517032
2784,0.1075268864
2785,0.0879765415
2786,0.1075268864
2787,0.1368523955
2788,0.1466275596
2789,0.1466275596
2790,0.1368523955
2791,0.1466275596
2792,0.1564027309
2793,0.1564027309
2794,0.1466275596
2795,0.1368523955
2796,0.1759530782
2797,0.1466275596
2798,0.1564027309
2799,0.1466275596
2800,0.1173020482
2801,0.1173020482
2802,0.1173020482
2803,0.1075268864
2804,0.0977517032
2805,0.1075268864
2806,0.1075268864
2807,0.0879765415
2808,0.0977517032
2809,0.0879765415
2810,0.0879765415
2811,0.0684261989
2812,0.0879765415
2813,0.0782013654
2814,0.0684261989
2815,0.0782013654
2816,0.0879765415
2817,0.0782013654
2818,0.0879765415
2819,0.0782013654
2820,0.0879765415
2821,0.0879765415
2822,0.0879765415
2823,0.0879765415
2824,0.0879765415
2825,0.0879765415
2826,0.0879765415
2827,0.0684261989
2828,0.0684261989
2829,0.0586510229
2830,0.0586510229
2831,0.0684261989
2832,0.0684261989
2833,0.0684261989
2834,0.0879765415
2835,0.0879765415
2836,0.0879765415
2837,0.1075268864
2838,0.1075268864
2839,0.1075268864
2840,0.1075268864
2841,0.1075268864
2842,0.1173020482
2843,0.1270772218
2844,0.1368523955
2845,0.1466275596
2846,0.1564027309
2847,0.1759530782
2848,0.2248289346
2849,0.2737047910
2850,0.2834799575
2851,0.2639296054
2852,0.2737047910
2853,0.2737047910
2854,0.3225806236
2855,0.2932551193
2856,0.3225806236
2857,0.3421309947
2858,0.3616813421
2859,0.3225806236
2860,0.3323558330
2861,0.3030303001
2862,0.2737047910
2863,0.2639296054
2864,0.2639296054
2865,0.2443792819
2866,0.2346040964
2867,0.2052785873
2868,0.1759530782
2869,0.1564027309
2870,0.1466275596
2871,0.1368523955
2872,0.1173020482
2873,0.1173020482
2874,0.1173020482
2875,0.1368523955
2876,0.1270772218
2877,0.1270772218
2878,0.1270772218
2879,0.1270772218
2880,0.1173020482
2881,0.1075268864
2882,0.1075268864
2883,0.1075268864
2884,0.0977517032
2885,0.1173020482
2886,0.0977517032
2887,0.1173020482
2888,0.1270772218
2889,0.1173020482
2890,0.1075268864
2891,0.0977517032
2892,0.1075268864
2893,0.1173020482
2894,0.1075268864
2895,0.1075268864
2896,0.1075268864
2897,0.0977517032
2898,0.0977517032
2899,0.1075268864
2900,0.0977517032
2901,0.0879765415
2902,0.0879765415
2903,0.0782013654
2904,0.0879765415
2905,0.0879765415
2906,0.0782013654
2907,0.0684261989
2908,0.0586510229
2909,0.0782013654
2910,0.0879765415
2911,0.0782013654
2912,0.0684261989
2913,0.0684261989
2914,0.0684261989
2915,0.0586510229
2916,0.0782013654
2917,0.0782013654
2918,0.0782013654
2919,0.0879765415
2920,0.0782013654
2921,0.0782013654
2922,0.0879765415
2923,0.0977517032
2924,0.0879765415
2925,0.0684261989
2926,0.0782013654
2927,0.0684261989
2928,0.0684261989
2929,0.0684261989
2930,0.0684261989
2931,0.0684261989
2932,0.0684261989
2933,0.0586510229
2934,0.0586510229
2935,0.0586510229
2936,0.0586510229
2937,0.0586510229
2938,0.0586510229
2939,0.0684261989
2940,0.0586510229
2941,0.0586510229
2942,0.0586510229
2943,0.0586510229
2944,0.0684261989
2945,0.0879765415
2946,0.1075268864
2947,0.0977517032
2948,0.0879765415
2949,0.0879765415
2950,0.0782013654
2951,0.0879765415
2952,0.0684261989
2953,0.0684261989
2954,0.0782013654
2955,0.0684261989
2956,0.0586510229
2957,0.0879765415
2958,0.0879765415
2959,0.0879765415
2960,0.1075268864
2961,0.1075268864
2962,0.0977517032
2963,0.0879765415
2964,0.0977517032
2965,0.0977517032
2966,0.1075268864
2967,0.0977517032
2968,0.1075268864
2969,0.0977517032
2970,0.1075268864
2971,0.1075268864
2972,0.1075268864
2973,0.1075268864
2974,0.1173020482
2975,0.1173020482
2976,0.1173020482
2977,0.1270772218
2978,0.1270772218
2979,0.1466275596
2980,0.1661779165
2981,0.1759530782
2982,0.1564027309
2983,0.1955034160
2984,0.1857282543
2985,0.2150537729
2986,0.2737047910
2987,0.2834799575
2988,0.2834799575
2989,0.2639296054
2990,0.2932551193
2991,0.2737047910
2992,0.3323558330
2993,0.3714565038
2994,0.3714565038
2995,0.3421309947
2996,0.3323558330
2997,0.3225806236
2998,0.2834799575
2999,0.2443792819
3000,0.2346040964
3001,0.6256109237
3002,0.5474095821
3003,0.4692081928
3004,0.4203323364
3005,0.3519061565
3006,0.3128054618
3007,0.2932551193
3008,0.2737047910
3009,0.2443792819
3010,0.2248289346
3011,0.2052785873
3012,0.2052785873
3013,0.2052785873
3014,0.1857282543
3015,0.1857282543
3016,0.1857282543
3017,0.1759530782
3018,0.1857282543
3019,0.1759530782
3020,0.1661779165
3021,0.1759530782
3022,0.1661779165
3023,0.1564027309
3024,0.1564027309
3025,0.1368523955
3026,0.1270772218
3027,0.1173020482
3028,0.1368523955
3029,0.1466275596
3030,0.1564027309
3031,0.1759530782
3032,0.1564027309
3033,0.1564027309
3034,0.1466275596
3035,0.1270772218
3036,0.1270772218
3037,0.1270772218
3038,0.1368523955
3039,0.1661779165
3040,0.1466275596
3041,0.1466275596
3042,0.1466275596
3043,0.1661779165
3044,0.1466275596
3045,0.1173020482
3046,0.1173020482
3047,0.1075268864
3048,0.1173020482
3049,0.1270772218
3050,0.1368523955
3051,0.1270772218
3052,0.1270772218
3053,0.1270772218
3054,0.1075268864
3055,0.1075268864
3056,0.0977517032
3057,0.1075268864
3058,0.1173020482
3059,0.1075268864
3060,0.1075268864
3061,0.0977517032
3062,0.1075268864
3063,0.0977517032
3064,0.1075268864
3065,0.1270772218
3066,0.0977517032
3067,0.0879765415
3068,0.0977517032
3069,0.1075268864
3070,0.0977517032
3071,0.0977517032
3072,0.0977517032
3073,0.1075268864
3074,0.1270772218
3075,0.1075268864
3076,0.1270772218
3077,0.1075268864
3078,0.1075268864
3079,0.1173020482
3080,0.1075268864
3081,0.1270772218
3082,0.1173020482
3083,0.1075268864
3084,0.0879765415
3085,0.1075268864
3086,0.0977517032
3087,0.0977517032
3088,0.0977517032
3089,0.1173020482
3090,0.1075268864
3091,0.1075268864
3092,0.0977517032
3093,0.0879765415
3094,0.0879765415
3095,0.0879765415
3096,0.0782013654
3097,0.0879765415
3098,0.0782013654
3099,0.0782013654
3100,0.0684261989
3101,0.0782013654
3102,0.0879765415
3103,0.0782013654
3104,0.0782013654
3105,0.0684261989
3106,0.0684261989
3107,0.0684261989
3108,0.0684261989
3109,0.0586510229
3110,0.0586510229
3111,0.0586510229
3112,0.0586510229
3113,0.0586510229
3114,0.0684261989
3115,0.0684261989
3116,0.0684261989
3117,0.0586510229
3118,0.0586510229
3119,0.0586510229
3120,0.0488758516
3121,0.0488758516
3122,0.0586510229
3123,0.0684261989
3124,0.0782013654
3125,0.0782013654
3126,0.0879765415
3127,0.0879765415
3128,0.1075268864
3129,0.1466275596
3130,0.1661779165
3131,0.1564027309
3132,0.1661779165
3133,0.1564027309
3134,0.1759530782
3135,0.1661779165
3136,0.1466275596
3137,0.1270772218
3138,0.1466275596
3139,0.1661779165
3140,0.1564027309
3141,0.1955034160
3142,0.2346040964
3143,0.2541544437
3144,0.2443792819
3145,0.2346040964
3146,0.2150537729
3147,0.1955034160
3148,0.1955034160
3149,0.2150537729
3150,0.1857282543
3151,0.2052785873
3152,0.2248289346
3153,0.2639296054
3154,0.2639296054
3155,0.3030303001
3156,0.3421309947
3157,0.3714565038
3158,0.4594330310
3159,0.4105571746
3160,0.3714565038
3161,0.3421309947
3162,0.3910068321
3163,0.3910068321
3164,0.3714565038
3165,0.3421309947
3166,0.3519061565
3167,0.3421309947
3168,0.3225806236
3169,0.3030303001
3170,0.2932551193
3171,0.3421309947
3172,0.3225806236
3173,0.2834799575
3174,0.2737047910
3175,0.2639296054
3176,0.2150537729
3177,0.2150537729
3178,0.1955034160
3179,0.2248289346
3180,0.2052785873
3181,0.1955034160
3182,0.1955034160
3183,0.1857282543
3184,0.1955034160
3185,0.1955034160
3186,0.2052785873
3187,0.1955034160
3188,0.1857282543
3189,0.1857282543
3190,0.1759530782
3191,0.1564027309
3192,0.1759530782
3193,0.1857282543
3194,0.1857282543
3195,0.1759530782
3196,0.1857282543
3197,0.1661779165
3198,0.1661779165
3199,0.1564027309
3200,0.1759530782
3201,0.1661779165
3202,0.1661779165
3203,0.1466275596
3204,0.1466275596
3205,0.1368523955
3206,0.1368523955
3207,0.1368523955
3208,0.1173020482
3209,0.1270772218
3210,0.1173020482
3211,0.1075268864
3212,0.1075268864
3213,0.1270772218
3214,0.1368523955
3215,0.1270772218
3216,0.1270772218
3217,0.1173020482
3218,0.1368523955
3219,0.1270772218
3220,0.1075268864
3221,0.1270772218
3222,0.1173020482
3223,0.0977517032
3224,0.0879765415
3225,0.0782013654
3226,0.1075268864
3227,0.1075268864
3228,0.0977517032
3229,0.1075268864
3230,0.1075268864
3231,0.0977517032
3232,0.1075268864
3233,0.0879765415
3234,0.0977517032
3235,0.0879765415
3236,0.0782013654
3237,0.0782013654
3238,0.0782013654
3239,0.0684261989
3240,0.0684261989
3241,0.0782013654
3242,0.0782013654
3243,0.0782013654
3244,0.0782013654
3245,0.0782013654
3246,0.0782013654
3247,0.0782013654
3248,0.0684261989
3249,0.0782013654
3250,0.0684261989
3251,0.0684261989
3252,0.0684261989
3253,0.0782013654
3254,0.0782013654
3255,0.0879765415
3256,0.0879765415
3257,0.0879765415
3258,0.0977517032
3259,0.0879765415
3260,0.0879765415
3261,0.0879765415
3262,0.1173020482
3263,0.1173020482
3264,0.1270772218
3265,0.1270772218
3266,0.1270772218
3267,0.1564027309
3268,0.1466275596
3269,0.1759530782
3270,0.2443792819
3271,0.2150537729
3272,0.2248289346
3273,0.1955034160
3274,0.2052785873
3275,0.2443792819
3276,0.2248289346
3277,0.2052785873
3278,0.2052785873
3279,0.2150537729
3280,0.2150537729
3281,0.1955034160
3282,0.2150537729
3283,0.2150537729
3284,0.2248289346
3285,0.2346040964
3286,0.2443792819
3287,0.2443792819
3288,0.2639296054
3289,0.3323558330
3290,0.2834799575
3291,0.3128054618
3292,0.2932551193
3293,0.3128054618
3294,0.3128054618
3295,0.3128054618
3296,0.3128054618
3297,0.2834799575
3298,0.3225806236
3299,0.3128054618
3300,0.3128054618
3301,0.3030303001
3302,0.2834799575
3303,0.2639296054
3304,0.2443792819
3305,0.2150537729
3306,0.1955034160
3307,0.1857282543
3308,0.2052785873
3309,0.1857282543
3310,0.1955034160
3311,0.1955034160
3312,0.2150537729
3313,0.2052785873
3314,0.2052785873
3315,0.1955034160
3316,0.1857282543
3317,0.1759530782
3318,0.1857282543
3319,0.2052785873
3320,0.1759530782
3321,0.1661779165
3322,0.1466275596
3323,0.1564027309
3324,0.1368523955
3325,0.1564027309
3326,0.1466275596
3327,0.1466275596
3328,0.1466275596
3329,0.1466275596
3330,0.1368523955
3331,0.1368523955
3332,0.1368523955
3333,0.1661779165
3334,0.1466275596
3335,0.1368523955
3336,0.1564027309
3337,0.1564027309
3338,0.1368523955
3339,0.1270772218
3340,0.1173020482
3341,0.1075268864
3342,0.0977517032
3343,0.0879765415
3344,0.0977517032
3345,0.0879765415
3346,0.0977517032
3347,0.1173020482
3348,0.1173020482
3349,0.1173020482
3350,0.1075268864
3351,0.1075268864
3352,0.1173020482
3353,0.1173020482
3354,0.1368523955
3355,0.1270772218
3356,0.1270772218
3357,0.1075268864
3358,0.1270772218
3359,0.1173020482
3360,0.1075268864
3361,0.1173020482
3362,0.1270772218
3363,0.1075268864
3364,0.1173020482
3365,0.1270772218
3366,0.1173020482
3367,0.0977517032
3368,0.0879765415
3369,0.0977517032
3370,0.0977517032
3371,0.1075268864
3372,0.1075268864
3373,0.1173020482
3374,0.1173020482
3375,0.1368523955
3376,0.1270772218
3377,0.1270772218
3378,0.1075268864
3379,0.1075268864
3380,0.1173020482
3381,0.1270772218
3382,0.1368523955
3383,0.1173020482
3384,0.1173020482
3385,0.1075268864
3386,0.0977517032
3387,0.0879765415
3388,0.0879765415
3389,0.0879765415
3390,0.0879765415
3391,0.0879765415
3392,0.0977517032
3393,0.0879765415
3394,0.0782013654
3395,0.0879765415
3396,0.0977517032
3397,0.0977517032
3398,0.0977517032
3399,0.1173020482
3400,0.1270772218
3401,0.1661779165
3402,0.1466275596
3403,0.1564027309
3404,0.1661779165
3405,0.1759530782
3406,0.1564027309
3407,0.1466275596
3408,0.1564027309
3409,0.1759530782
3410,0.1857282543
3411,0.1857282543
3412,0.1955034160
3413,0.1759530782
3414,0.2150537729
3415,0.2150537729
3416,0.1955034160
3417,0.2052785873
3418,0.2150537729
3419,0.2052785873
3420,0.2737047910
3421,0.2932551193
3422,0.2834799575
3423,0.3030303001
3424,0.2932551193
3425,0.3421309947
3426,0.3323558330
3427,0.3225806236
3428,0.3616813421
3429,0.3519061565
3430,0.3225806236
3431,0.3323558330
3432,0.3714565038
3433,0.4496578693
3434,0.3812316703
3435,0.3714565038
3436,0.3323558330
3437,0.3323558330
3438,0.3225806236
3439,0.3323558330
3440,0.3323558330
3441,0.3323558330
3442,0.2932551193
3443,0.2834799575
3444,0.2834799575
3445,0.2541544437
3446,0.2443792819
3447,0.2150537729
3448,0.2052785873
3449,0.1857282543
3450,0.2150537729
3451,0.2150537729
3452,0.2248289346
3453,0.2150537729
3454,0.1955034160
3455,0.2052785873
3456,0.1857282543
3457,0.1857282543
3458,0.1955034160
3459,0.1759530782
3460,0.1564027309
3461,0.1466275596
3462,0.1466275596
3463,0.1661779165
3464,0.1368523955
3465,0.1368523955
3466,0.1759530782
3467,0.1857282543
3468,0.1759530782
3469,0.1857282543
3470,0.1661779165
3471,0.1564027309
3472,0.1466275596
3473,0.1466275596
3474,0.1270772218
3475,0.1173020482
3476,0.1270772218
3477,0.1075268864
3478,0.1075268864
3479,0.1173020482
3480,0.1075268864
3481,0.0879765415
3482,0.0977517032
3483,0.0977517032
3484,0.0879765415
3485,0.0879765415
3486,0.0879765415
3487,0.1075268864
3488,0.1173020482
3489,0.1173020482
3490,0.1075268864
3491,0.1075268864
3492,0.1075268864
3493,0.0977517032
3494,0.1075268864
3495,0.1075268864
3496,0.1075268864
3497,0.1075268864
3498,0.1075268864
3499,0.1075268864
3500,0.0977517032
3501,0.1075268864
3502,0.0879765415
3503,0.0879765415
3504,0.0879765415
3505,0.0684261989
3506,0.0879765415
3507,0.0977517032
3508,0.0977517032
3509,0.1075268864
3510,0.0977517032
3511,0.0977517032
3512,0.0977517032
3513,0.0879765415
3514,0.0977517032
3515,0.0782013654
3516,0.0684261989
3517,0.0782013654
3518,0.0782013654
3519,0.0782013654
3520,0.0684261989
3521,0.0684261989
3522,0.0684261989
3523,0.0684261989
3524,0.0684261989
3525,0.0684261989
3526,0.0782013654
3527,0.0684261989
3528,0.0782013654
3529,0.0879765415
3530,0.0879765415
3531,0.0879765415
3532,0.0782013654
3533,0.0782013654
3534,0.0879765415
3535,0.0879765415
3536,0.1075268864
3537,0.1075268864
3538,0.1173020482
3539,0.1173020482
3540,0.1173020482
3541,0.1270772218
3542,0.1368523955
3543,0.1368523955
3544,0.1368523955
3545,0.1759530782
3546,0.2248289346
3547,0.2248289346
3548,0.2248289346
3549,0.2346040964
3550,0.2443792819
3551,0.2541544437
3552,0.2346040964
3553,0.3030303001
3554,0.3030303001
3555,0.3128054618
3556,0.3128054618
3557,0.3323558330
3558,0.3128054618
3559,0.3128054618
3560,0.3030303001
3561,0.3030303001
3562,0.2737047910
3563,0.2541544437
3564,0.2737047910
3565,0.2737047910
3566,0.3128054618
3567,0.3030303001
3568,0.3225806236
3569,0.3128054618
3570,0.3519061565
3571,0.3128054618
3572,0.2834799575
3573,0.2541544437
3574,0.2541544437
3575,0.2346040964
3576,0.2248289346
3577,0.2150537729
3578,0.1857282543
3579,0.2052785873
3580,0.1955034160
3581,0.2150537729
3582,0.1857282543
3583,0.1857282543
3584,0.1661779165
3585,0.1466275596
3586,0.1661779165
3587,0.1661779165
3588,0.2052785873
3589,0.1955034160
3590,0.1857282543
3591,0.1759530782
3592,0.1661779165
3593,0.1661779165
3594,0.1661779165
3595,0.1564027309
3596,0.1466275596
3597,0.1564027309
3598,0.1368523955
3599,0.1270772218
3600,0.1368523955
3601,0.1466275596
3602,0.1661779165
3603,0.1564027309
3604,0.1466275596
3605,0.1368523955
3606,0.1466275596
3607,0.1368523955
3608,0.1466275596
3609,0.1270772218
3610,0.1173020482
3611,0.1173020482
3612,0.1075268864
3613,0.0977517032
3614,0.0977517032
3615,0.0977517032
3616,0.1173020482
3617,0.1173020482
3618,0.1075268864
3619,0.0977517032
3620,0.0879765415
3621,0.0879765415
3622,0.0879765415
3623,0.0879765415
3624,0.0879765415
3625,0.0684261989
3626,0.0879765415
3627,0.0977517032
3628,0.0977517032
3629,0.0879765415
3630,0.0782013654
3631,0.0879765415
3632,0.0879765415
3633,0.0977517032
3634,0.0977517032
3635,0.1075268864
3636,0.1075268864
3637,0.1173020482
3638,0.1173020482
3639,0.0977517032
3640,0.0977517032
3641,0.0977517032
3642,0.0977517032
3643,0.1075268864
3644,0.1075268864
3645,0.0977517032
3646,0.1075268864
3647,0.0879765415
3648,0.0879765415
3649,0.0782013654
3650,0.0782013654
3651,0.0879765415
3652,0.0879765415
3653,0.0879765415
3654,0.0879765415
3655,0.1075268864
3656,0.1075268864
3657,0.0977517032
3658,0.1173020482
3659,0.1075268864
3660,0.1075268864
3661,0.1270772218
3662,0.1368523955
3663,0.1270772218
3664,0.1466275596
3665,0.1368523955
3666,0.1466275596
3667,0.1466275596
3668,0.1270772218
3669,0.1466275596
3670,0.1857282543
3671,0.1759530782
3672,0.1857282543
3673,0.1857282543
3674,0.2346040964
3675,0.2443792819
3676,0.2541544437
3677,0.2443792819
3678,0.2443792819
3679,0.2639296054
3680,0.2737047910
3681,0.2834799575
3682,0.2932551193
3683,0.3030303001
3684,0.2834799575
3685,0.2834799575
3686,0.2639296054
3687,0.2443792819
3688,0.2834799575
3689,0.3910068321
3690,0.3714565038
3691,0.3812316703
3692,0.3616813421
3693,0.3519061565
3694,0.3519061565
3695,0.3225806236
3696,0.3030303001
3697,0.2932551193
3698,0.2834799575
3699,0.2834799575
3700,0.2639296054
3701,0.2443792819
3702,0.2150537729
3703,0.2150537729
3704,0.2052785873
3705,0.2052785873
3706,0.2150537729
3707,0.2150537729
3708,0.1955034160
3709,0.2150537729
3710,0.2052785873
3711,0.1955034160
3712,0.2052785873
3713,0.1955034160
3714,0.1857282543
3715,0.1661779165
3716,0.1661779165
3717,0.1661779165
3718,0.1759530782
3719,0.1661779165
3720,0.1661779165
3721,0.1661779165
3722,0.1661779165
3723,0.1661779165
3724,0.1661779165
3725,0.1661779165
3726,0.1661779165
3727,0.1661779165
3728,0.1661779165
3729,0.1564027309
3730,0.1466275596
3731,0.1466275596
3732,0.1466275596
3733,0.1564027309
3734,0.1368523955
3735,0.1270772218
3736,0.1564027309
3737,0.1564027309
3738,0.1466275596
3739,0.1564027309
3740,0.1564027309
3741,0.2052785873
3742,0.1955034160
3743,0.1759530782
3744,0.1759530782
3745,0.1661779165
3746,0.1564027309
3747,0.1661779165
3748,0.1466275596
3749,0.1466275596
3750,0.1270772218
3751,0.1270772218
3752,0.1173020482
3753,0.1270772218
3754,0.1173020482
3755,0.1270772218
3756,0.1270772218
3757,0.1270772218
3758,0.1368523955
3759,0.1270772218
3760,0.1173020482
3761,0.0977517032
3762,0.1075268864
3763,0.0879765415
3764,0.1075268864
3765,0.0977517032
3766,0.0977517032
3767,0.1075268864
3768,0.1075268864
3769,0.1173020482
3770,0.1173020482
3771,0.1173020482
3772,0.1466275596
3773,0.1466275596
3774,0.1368523955
3775,0.1368523955
3776,0.1368523955
3777,0.1661779165
3778,0.1857282543
3779,0.1857282543
3780,0.1955034160
3781,0.2346040964
3782,0.2248289346
3783,0.2150537729
3784,0.2150537729
3785,0.2248289346
3786,0.2541544437
3787,0.2443792819
3788,0.2052785873
3789,0.2443792819
3790,0.2443792819
3791,0.2346040964
3792,0.2346040964
3793,0.2443792819
3794,0.2932551193
3795,0.3323558330
3796,0.3225806236
3797,0.3616813421
3798,0.3714565038
3799,0.3616813421
3800,0.3225806236
3801,0.3128054618
3802,0.3030303001
3803,0.3128054618
3804,0.2932551193
3805,0.3225806236
3806,0.3323558330
3807,0.3323558330
3808,0.3225806236
3809,0.3323558330
3810,0.3225806236
3811,0.3030303001
3812,0.3128054618
3813,0.2932551193
3814,0.2834799575
3815,0.2834799575
3816,0.2737047910
3817,0.2541544437
3818,0.2541544437
3819,0.2639296054
3820,0.2346040964
3821,0.2443792819
3822,0.2248289346
3823,0.2052785873
3824,0.2052785873
3825,0.2052785873
3826,0.1955034160
3827,0.1857282543
3828,0.1661779165
3829,0.1759530782
3830,0.1759530782
3831,0.1661779165
3832,0.1857282543
3833,0.1955034160
3834,0.1759530782
3835,0.1759530782
3836,0.1759530782
3837,0.1564027309
3838,0.1661779165
3839,0.1466275596
3840,0.1466275596
3841,0.1564027309
3842,0.1466275596
3843,0.1368523955
3844,0.1564027309
3845,0.1759530782
3846,0.1661779165
3847,0.1368523955
3848,0.1368523955
3849,0.1368523955
3850,0.1368523955
3851,0.1270772218
3852,0.1173020482
3853,0.1368523955
3854,0.1173020482
3855,0.1075268864
3856,0.1173020482
3857,0.1270772218
3858,0.1173020482
3859,0.1075268864
3860,0.1075268864
3861,0.1173020482
3862,0.1173020482
3863,0.1173020482
3864,0.1173020482
3865,0.1270772218
3866,0.1075268864
3867,0.0879765415
3868,0.1173020482
3869,0.1075268864
3870,0.1075268864
3871,0.1075268864
3872,0.1075268864
3873,0.0977517032
3874,0.0879765415
3875,0.1075268864
3876,0.0977517032
3877,0.0879765415
3878,0.0977517032
3879,0.0977517032
3880,0.1075268864
3881,0.0879765415
3882,0.0977517032
3883,0.0977517032
3884,0.0977517032
3885,0.1075268864
3886,0.1075268864
3887,0.1075268864
3888,0.0977517032
3889,0.0977517032
3890,0.0879765415
3891,0.0879765415
3892,0.0879765415
3893,0.0782013654
3894,0.0977517032
3895,0.0977517032
3896,0.0879765415
3897,0.0879765415
3898,0.0879765415
3899,0.0879765415
3900,0.0977517032
3901,0.1075268864
3902,0.1173020482
3903,0.1270772218
3904,0.1368523955
3905,0.1564027309
3906,0.1466275596
3907,0.1564027309
3908,0.1661779165
3909,0.1661779165
3910,0.1466275596
3911,0.1564027309
3912,0.1466275596
3913,0.1564027309
3914,0.1564027309
3915,0.1466275596
3916,0.1857282543
3917,0.1857282543
3918,0.1759530782
3919,0.1955034160
3920,0.2150537729
3921,0.2443792819
3922,0.2443792819
3923,0.2443792819
3924,0.2639296054
3925,0.2443792819
3926,0.2541544437
3927,0.2834799575
3928,0.3128054618
3929,0.3616813421
3930,0.3714565038
3931,0.3519061565
3932,0.3519061565
3933,0.3519061565
3934,0.3616813421
3935,0.3812316703
3936,0.3616813421
3937,0.3225806236
3938,0.3616813421
3939,0.3519061565
3940,0.3714565038
3941,0.3714565038
3942,0.3421309947
3943,0.3323558330
3944,0.3030303001
3945,0.2834799575
3946,0.2541544437
3947,0.2443792819
3948,0.2541544437
3949,0.2248289346
3950,0.2248289346
3951,0.2248289346
3952,0.2150537729
3953,0.2052785873
3954,0.2248289346
3955,0.2150537729
3956,0.1955034160
3957,0.1955034160
3958,0.1955034160
3959,0.1759530782
3960,0.1759530782
3961,0.1661779165
3962,0.1564027309
3963,0.1564027309
3964,0.1564027309
3965,0.1466275596
3966,0.1564027309
3967,0.1466275596
3968,0.1564027309
3969,0.1466275596
3970,0.1466275596
3971,0.1368523955
3972,0.1270772218
3973,0.1173020482
3974,0.1173020482
3975,0.1466275596
3976,0.1368523955
3977,0.1368523955
3978,0.1173020482
3979,0.1368523955
3980,0.1368523955
3981,0.1270772218
3982,0.1075268864
3983,0.1075268864
3984,0.1173020482
3985,0.1075268864
3986,0.0977517032
3987,0.0879765415
3988,0.0879765415
3989,0.0782013654
3990,0.0879765415
3991,0.1075268864
3992,0.1173020482
3993,0.1075268864
3994,0.1075268864
3995,0.1075268864
3996,0.1075268864
3997,0.1173020482
3998,0.1173020482
3999,0.0977517032
0,0.0977517032
1,0.1759530782
2,0.1466275596
3,0.1466275596
4,0.1270772218
5,0.1270772218
6,0.1368523955
7,0.1173020482
8,0.1075268864
9,0.0977517032
10,0.0879765415
11,0.0879765415
12,0.0782013654
13,0.0684261989
14,0.0684261989
15,0.0684261989
16,0.0684261989
17,0.0586510229
18,0.0684261989
19,0.0684261989
20,0.0977517032
21,0.0879765415
22,0.0879765415
23,0.0879765415
24,0.0977517032
25,0.0977517032
26,0.0879765415
27,0.0782013654
28,0.0782013654
29,0.0684261989
30,0.0586510229
31,0.0684261989
32,0.0586510229
33,0.0586510229
34,0.0586510229
35,0.0586510229
36,0.0586510229
37,0.0586510229
38,0.0488758516
39,0.0586510229
40,0.0684261989
41,0.0586510229
42,0.0586510229
43,0.0782013654
44,0.0879765415
45,0.0977517032
46,0.0977517032
47,0.1075268864
48,0.1173020482
49,0.1075268864
50,0.1173020482
51,0.1173020482
52,0.1564027309
53,0.1759530782
54,0.1955034160
55,0.1955034160
56,0.1955034160
57,0.2052785873
58,0.1857282543
59,0.2248289346
60,0.2346040964
61,0.2150537729
62,0.2150537729
63,0.2052785873
64,0.2248289346
65,0.2541544437
66,0.2737047910
67,0.2932551193
68,0.3616813421
69,0.3323558330
70,0.3128054618
71,0.3225806236
72,0.3323558330
73,0.3225806236
74,0.3323558330
75,0.3128054618
76,0.3616813421
77,0.3812316703
78,0.3616813421
79,0.3323558330
80,0.3323558330
81,0.3421309947
82,0.3323558330
83,0.3128054618
84,0.2834799575
85,0.2541544437
86,0.2443792819
87,0.2248289346
88,0.1955034160
89,0.1759530782
90,0.1759530782
91,0.1564027309
92,0.1564027309
93,0.1466275596
94,0.1368523955
95,0.1466275596
96,0.1466275596
97,0.1368523955
98,0.1270772218
99,0.1270772218
100,0.1368523955
101,0.1466275596
102,0.1564027309
103,0.1466275596
104,0.1270772218
105,0.1270772218
106,0.1270772218
107,0.1270772218
108,0.1173020482
109,0.1173020482
110,0.1270772218
111,0.1270772218
112,0.1173020482
113,0.1075268864
114,0.1075268864
115,0.0977517032
116,0.0879765415
117,0.0879765415
118,0.0782013654
119,0.0977517032
120,0.0977517032
121,0.1075268864
122,0.1075268864
123,0.1075268864
124,0.0977517032
125,0.0879765415
126,0.0879765415
127,0.0879765415
128,0.0879765415
129,0.0782013654
130,0.0782013654
131,0.0782013654
132,0.0782013654
133,0.0879765415
134,0.0782013654
135,0.0782013654
136,0.0684261989
137,0.0684261989
138,0.0782013654
139,0.0782013654
140,0.0684261989
141,0.0684261989
142,0.0684261989
143,0.0586510229
144,0.0488758516
145,0.0684261989
146,0.0684261989
147,0.0684261989
148,0.0782013654
149,0.0782013654
150,0.0684261989
151,0.0684261989
152,0.0782013654
153,0.0782013654
154,0.0782013654
155,0.0684261989
156,0.0684261989
157,0.0586510229
158,0.0586510229
159,0.0488758516