0,0.0195503416
1,0.2346040964
2,0.3323558330
3,0.3714565038
4,0.3812316703
5,0.3519061565
6,0.2737047910
7,0.2248289346
8,0.1759530782
9,0.1564027309
10,0.1270772218
11,0.0977517032
12,0.0782013654
13,0.0586510229
14,0.0391006832
15,0.0293255119
16,0.0195503416
17,0.0097751703
18,0.0097751703
19,0.0000000000
20,0.0000000000
21,0.0000000000
22,0.0000000000
23,0.0000000000
24,0.0000000000
25,0.2248289346
26,0.1759530782
27,0.2346040964
28,0.2834799575
29,0.2443792819
30,0.2052785873
31,0.1661779165
32,0.1368523955
33,0.0977517032
34,0.0782013654
35,0.0586510229
36,0.0391006832
37,0.0293255119
38,0.0195503416
39,0.0195503416
40,0.0097751703
41,0.0097751703
42,0.0000000000
43,0.0000000000
44,0.0000000000
45,0.0000000000
46,0.0000000000
47,0.0000000000
48,0.0000000000
49,0.0000000000
50,0.0000000000
51,0.0000000000
52,0.2150537729
53,0.3128054618
54,0.4007820129
55,0.3519061565
56,0.2932551193
57,0.3519061565
58,0.5669599056
59,0.6158357620
60,0.7331378459
61,0.5962854385
62,0.4692081928
63,0.3910068321
64,0.3128054618
65,0.2541544437
66,0.2834799575
67,0.3421309947
68,0.3910068321
69,0.4692081928
70,0.4105571746
71,0.3421309947
72,0.2737047910
73,0.2248289346
74,0.1759530782
75,0.1368523955
76,0.1075268864
77,0.0879765415
78,0.0684261989
79,0.0488758516
80,0.0391006832
81,0.0391006832
82,0.0195503416
83,0.0097751703
84,0.0097751703
85,0.0000000000
86,0.0000000000
87,0.0000000000
88,0.0000000000
89,0.0000000000
90,0.0000000000
91,0.0000000000
92,0.0000000000
93,0.0000000000
94,0.0000000000
95,0.0000000000
96,0.0000000000
97,0.0000000000
98,0.0000000000
99,0.0000000000
100,0.0000000000
101,0.0000000000
102,0.0000000000
103,0.0000000000
104,0.0000000000
105,0.0000000000
106,0.0000000000
107,0.0000000000
108,0.0000000000
109,0.0000000000
110,0.0000000000
111,0.0000000000
112,0.0000000000
113,0.0000000000
114,0.0000000000
115,0.0000000000
116,0.0000000000
117,0.0000000000
118,0.0000000000
119,0.0000000000
120,0.0000000000
121,0.0000000000
122,0.0000000000
123,0.0000000000
124,0.0000000000
125,0.0000000000
126,0.0000000000
127,0.0000000000
128,0.0000000000
129,0.0000000000
130,0.0000000000
131,0.0000000000
132,0.0000000000
133,0.0000000000
134,0.0000000000
135,0.0000000000
136,0.0000000000
137,0.0000000000
138,0.0000000000
139,0.0000000000
140,0.0000000000
141,0.0000000000
142,0.0000000000
143,0.0000000000
144,0.0000000000
145,0.0000000000
146,0.0000000000
147,0.0000000000
148,0.0000000000
149,0.0000000000
150,0.0000000000
151,0.1955034160
152,0.1564027309
153,0.1270772218
154,0.0879765415
155,0.0782013654
156,0.0684261989
157,0.0488758516
158,0.0391006832
159,0.0391006832
160,0.0488758516
161,0.0488758516
162,0.0391006832
163,0.2443792819
164,0.2639296054
165,0.2248289346
166,0.1955034160
167,0.1564027309
168,0.1270772218
169,0.1075268864
170,0.0879765415
171,0.0684261989
172,0.0488758516
173,0.0293255119
174,0.0293255119
175,0.0195503416
176,0.0097751703
177,0.0000000000
178,0.0000000000
179,0.0000000000
180,0.1368523955
181,0.2052785873
182,0.1661779165
183,0.1270772218
184,0.1075268864
185,0.1075268864
186,0.1759530782
187,0.1759530782
188,0.1466275596
189,0.1173020482
190,0.0977517032
191,0.0782013654
192,0.0684261989
193,0.0586510229
194,0.0488758516
195,0.0391006832
196,0.0391006832
197,0.0391006832
198,0.0391006832
199,0.0488758516
200,0.0488758516
201,0.0488758516
202,0.0391006832
203,0.0586510229
204,0.0488758516
205,0.0488758516
206,0.0488758516
207,0.0488758516
208,0.0391006832
209,0.1564027309
210,0.1857282543
211,0.1661779165
212,0.1368523955
213,0.1173020482
214,0.0879765415
215,0.0684261989
216,0.0586510229
217,0.0391006832
218,0.0391006832
219,0.0293255119
220,0.0293255119
221,0.0195503416
222,0.0195503416
223,0.0097751703
224,0.0097751703
225,0.0097751703
226,0.0097751703
227,0.0000000000
228,0.0000000000
229,0.0000000000
230,0.0000000000
231,0.0000000000
232,0.0000000000
233,0.0000000000
234,0.0000000000
235,0.0000000000
236,0.0000000000
237,0.0000000000
238,0.0000000000
239,0.0000000000
240,0.0000000000
241,0.0000000000
242,0.0000000000
243,0.0000000000
244,0.0000000000
245,0.0000000000
246,0.0000000000
247,0.0000000000
248,0.0000000000
249,0.0000000000
250,0.0097751703
251,0.0097751703
252,0.0097751703
253,0.0195503416
254,0.0195503416
255,0.0195503416
256,0.0195503416
257,0.0195503416
258,0.0097751703
259,0.0195503416
260,0.0293255119
261,0.0195503416
262,0.0195503416
263,0.0293255119
264,0.0391006832
265,0.0391006832
266,0.0391006832
267,0.0391006832
268,0.0488758516
269,0.0488758516
270,0.0488758516
271,0.0488758516
272,0.3616813421
273,0.5962854385
274,0.6158357620
275,0.7331378459
276,0.8797654151
277,0.7526881694
278,0.8211143493
279,0.8015640258
280,0.6940371513
281,0.5865102291
282,0.5083088874
283,0.4398827075
284,0.3812316703
285,0.3128054618
286,0.4887585639
287,0.4203323364
288,0.4887585639
289,0.6451612472
290,0.6549364089
291,0.5474095821
292,0.5669599056
293,0.6060606002
294,0.5083088874
295,0.4203323364
296,0.3421309947
297,0.2834799575
298,0.2346040964
299,0.1955034160
300,0.1661779165
301,0.1270772218
302,0.1075268864
303,0.0977517032
304,0.0977517032
305,0.0782013654
306,0.0684261989
307,0.0586510229
308,0.0488758516
309,0.0586510229
310,0.0391006832
311,0.0391006832
312,0.0195503416
313,0.0293255119
314,0.0195503416
315,0.0097751703
316,0.0097751703
317,0.0097751703
318,0.0000000000
319,0.0000000000
320,0.0000000000
321,0.0000000000
322,0.0097751703
323,0.0000000000
324,0.0000000000
325,0.0000000000
326,0.0000000000
327,0.0000000000
328,0.0000000000
329,0.0000000000
330,0.0000000000
331,0.0000000000
332,0.0000000000
333,0.0000000000
334,0.0000000000
335,0.0000000000
336,0.0000000000
337,0.0000000000
338,0.0000000000
339,0.0000000000
340,0.0000000000
341,0.0000000000
342,0.0000000000
343,0.0000000000
344,0.0000000000
345,0.0000000000
346,0.0000000000
347,0.0000000000
348,0.0000000000
349,0.0000000000
350,0.0000000000
351,0.0000000000
352,0.0000000000
353,0.0000000000
354,0.0000000000
355,0.0000000000
356,0.0000000000
357,0.0000000000
358,0.0000000000
359,0.0000000000
360,0.0000000000
361,0.0000000000
362,0.0000000000
363,0.0000000000
364,0.0000000000
365,0.0000000000
366,0.0000000000
367,0.0000000000
368,0.0000000000
369,0.0000000000
370,0.0000000000
371,0.0000000000
372,0.0000000000
373,0.0000000000
374,0.0000000000
375,0.0000000000
376,0.0000000000
377,0.0000000000
378,0.0097751703
379,0.0097751703
380,0.0000000000
381,0.0000000000
382,0.0000000000
383,0.0000000000
384,0.0000000000
385,0.0000000000
386,0.0000000000
387,0.0000000000
388,0.0000000000
389,0.0000000000
390,0.0000000000
391,0.0000000000
392,0.0000000000
393,0.0000000000
394,0.0000000000
395,0.0097751703
396,0.0097751703
397,0.0195503416
398,0.0195503416
399,0.0293255119
400,0.0488758516
401,0.0488758516
402,0.0293255119
403,0.0293255119
404,0.0391006832
405,0.0684261989
406,0.0684261989
407,0.0684261989
408,0.0684261989
409,0.0782013654
410,0.0879765415
411,0.0782013654
412,0.0586510229
413,0.1075268864
414,0.1075268864
415,0.1075268864
416,0.1173020482
417,0.1075268864
418,0.0879765415
419,0.0684261989
420,0.0586510229
421,0.0391006832
422,0.0391006832
423,0.0391006832
424,0.0293255119
425,0.0293255119
426,0.0293255119
427,0.0391006832
428,0.0293255119
429,0.0195503416
430,0.0293255119
431,0.0293255119
432,0.0195503416
433,0.0195503416
434,0.0097751703
435,0.0097751703
436,0.0195503416
437,0.0293255119
438,0.0195503416
439,0.0195503416
440,0.0097751703
441,0.0097751703
442,0.0097751703
443,0.0000000000
444,0.0097751703
445,0.0097751703
446,0.0000000000
447,0.0000000000
448,0.0097751703
449,0.0000000000
450,0.0000000000
451,0.0000000000
452,0.0000000000
453,0.0097751703
454,0.0097751703
455,0.0000000000
456,0.0097751703
457,0.0000000000
458,0.0000000000
459,0.0000000000
460,0.0000000000
461,0.0000000000
462,0.0000000000
463,0.0000000000
464,0.0000000000
465,0.0000000000
466,0.0000000000
467,0.0000000000
468,0.0000000000
469,0.0000000000
470,0.0000000000
471,0.0000000000
472,0.0000000000
473,0.0000000000
474,0.0000000000
475,0.0000000000
476,0.0000000000
477,0.0000000000
478,0.0000000000
479,0.0000000000
480,0.0000000000
481,0.0000000000
482,0.0000000000
483,0.0000000000
484,0.0000000000
485,0.0000000000
486,0.0000000000
487,0.0000000000
488,0.0000000000
489,0.0000000000
490,0.0000000000
491,0.0000000000
492,0.0000000000
493,0.0000000000
494,0.0000000000
495,0.0000000000
496,0.0000000000
497,0.0000000000
498,0.0000000000
499,0.0000000000
500,0.0000000000
501,0.0000000000
502,0.0000000000
503,0.0000000000
504,0.0000000000
505,0.0000000000
506,0.0000000000
507,0.0000000000
508,0.0000000000
509,0.0000000000
510,0.0000000000
511,0.0000000000
512,0.0000000000
513,0.0000000000
514,0.0000000000
515,0.0000000000
516,0.0000000000
517,0.0000000000
518,0.0000000000
519,0.0000000000
520,0.0000000000
521,0.0000000000
522,0.0000000000
523,0.0000000000
524,0.0000000000
525,0.0000000000
526,0.0000000000
527,0.0000000000
528,0.0000000000
529,0.0000000000
530,0.0000000000
531,0.0000000000
532,0.0000000000
533,0.0000000000
534,0.0000000000
535,0.0000000000
536,0.0000000000
537,0.0000000000
538,0.0000000000
539,0.0000000000
540,0.0000000000
541,0.0000000000
542,0.0097751703
543,0.0097751703
544,0.0097751703
545,0.0097751703
546,0.0195503416
547,0.0195503416
548,0.0195503416
549,0.0293255119
550,0.0293255119
551,0.0391006832
552,0.0488758516
553,0.0391006832
554,0.0293255119
555,0.0391006832
556,0.0488758516
557,0.0488758516
558,0.0586510229
559,0.0782013654
560,0.0782013654
561,0.0684261989
562,0.0684261989
563,0.0684261989
564,0.0488758516
565,0.0293255119
566,0.0293255119
567,0.0293255119
568,0.0293255119
569,0.0293255119
570,0.0195503416
571,0.0097751703
572,0.0097751703
573,0.0097751703
574,0.0097751703
575,0.0097751703
576,0.0097751703
577,0.0097751703
578,0.0097751703
579,0.0097751703
580,0.0097751703
581,0.0097751703
582,0.0000000000
583,0.0000000000
584,0.0000000000
585,0.0000000000
586,0.0000000000
587,0.0000000000
588,0.0000000000
589,0.0000000000
590,0.0000000000
591,0.0000000000
592,0.0000000000
593,0.0000000000
594,0.0097751703
595,0.0000000000
596,0.0000000000
597,0.0000000000
598,0.0097751703
599,0.0097751703
600,0.0097751703
601,0.0000000000
602,0.0000000000
603,0.0000000000
604,0.0097751703
605,0.0195503416
606,0.0097751703
607,0.0097751703
608,0.0097751703
609,0.0000000000
610,0.0000000000
611,0.0000000000
612,0.0000000000
613,0.0000000000
614,0.0000000000
615,0.0000000000
616,0.0000000000
617,0.0000000000
618,0.0000000000
619,0.0000000000
620,0.0000000000
621,0.0000000000
622,0.0000000000
623,0.0000000000
624,0.0000000000
625,0.0000000000
626,0.0000000000
627,0.0000000000
628,0.0000000000
629,0.0000000000
630,0.0000000000
631,0.0000000000
632,0.0000000000
633,0.0000000000
634,0.0000000000
635,0.0000000000
636,0.0000000000
637,0.0000000000
638,0.0000000000
639,0.0000000000
640,0.0000000000
641,0.0000000000
642,0.0000000000
643,0.0000000000
644,0.0000000000
645,0.0097751703
646,0.0000000000
647,0.0000000000
648,0.0000000000
649,0.0000000000
650,0.0000000000
651,0.0000000000
652,0.0000000000
653,0.0000000000
654,0.0000000000
655,0.0000000000
656,0.0000000000
657,0.0000000000
658,0.0000000000
659,0.0000000000
660,0.0097751703
661,0.0097751703
662,0.0293255119
663,0.0195503416
664,0.0097751703
665,0.0000000000
666,0.0000000000
667,0.0000000000
668,0.0000000000
669,0.0097751703
670,0.0097751703
671,0.0000000000
672,0.0000000000
673,0.0000000000
674,0.0000000000
675,0.0000000000
676,0.0000000000
677,0.0000000000
678,0.0000000000
679,0.0000000000
680,0.0000000000
681,0.0000000000
682,0.0000000000
683,0.0195503416
684,0.0195503416
685,0.0391006832
686,0.0391006832
687,0.0586510229
688,0.0684261989
689,0.0782013654
690,0.1075268864
691,0.1270772218
692,0.1173020482
693,0.1075268864
694,0.1368523955
695,0.1270772218
696,0.1270772218
697,0.1368523955
698,0.1368523955
699,0.1466275596
700,0.1564027309
701,0.1564027309
702,0.1564027309
703,0.1466275596
704,0.1270772218
705,0.1075268864
706,0.0879765415
707,0.0879765415
708,0.0782013654
709,0.0782013654
710,0.0879765415
711,0.0782013654
712,0.0879765415
713,0.0684261989
714,0.0684261989
715,0.0586510229
716,0.0391006832
717,0.0293255119
718,0.0293255119
719,0.0391006832
720,0.0293255119
721,0.0195503416
722,0.0195503416
723,0.0097751703
724,0.0097751703
725,0.0097751703
726,0.0097751703
727,0.0000000000
728,0.0000000000
729,0.0097751703
730,0.0000000000
731,0.3323558330
732,0.3030303001
733,0.2541544437
734,0.1955034160
735,0.1661779165
736,0.1270772218
737,0.1075268864
738,0.0782013654
739,0.0684261989
740,0.0586510229
741,0.0391006832
742,0.0293255119
743,0.0195503416
744,0.0195503416
745,0.0097751703
746,0.0097751703
747,0.0097751703
748,0.0000000000
749,0.0000000000
750,0.0000000000
751,0.0000000000
752,0.0000000000
753,0.0000000000
754,0.0000000000
755,0.0000000000
756,0.0000000000
757,0.0000000000
758,0.0000000000
759,0.0000000000
760,0.0000000000
761,0.0000000000
762,0.0000000000
763,0.0097751703
764,0.0097751703
765,0.0097751703
766,0.0097751703
767,0.0097751703
768,0.0195503416
769,0.0097751703
770,0.0097751703
771,0.0000000000
772,0.0000000000
773,0.0097751703
774,0.0000000000
775,0.0000000000
776,0.0000000000
777,0.0000000000
778,0.0000000000
779,0.0000000000
780,0.0000000000
781,0.0000000000
782,0.0000000000
783,0.0000000000
784,0.0000000000
785,0.0000000000
786,0.0000000000
787,0.0000000000
788,0.0000000000
789,0.0000000000
790,0.0000000000
791,0.2541544437
792,0.2248289346
793,0.1759530782
794,0.1368523955
795,0.1075268864
796,0.0879765415
797,0.0684261989
798,0.0488758516
799,0.0293255119
800,0.0195503416
801,0.0097751703
802,0.0097751703
803,0.0000000000
804,0.0000000000
805,0.0000000000
806,0.0000000000
807,0.0000000000
808,0.0000000000
809,0.0000000000
810,0.0000000000
811,0.0000000000
812,0.0000000000
813,0.0000000000
814,0.0000000000
815,0.0000000000
816,0.0000000000
817,0.0195503416
818,0.0195503416
819,0.0195503416
820,0.0391006832
821,0.0391006832
822,0.0391006832
823,0.0586510229
824,0.0488758516
825,0.0391006832
826,0.0879765415
827,0.0977517032
828,0.0977517032
829,0.0977517032
830,0.0977517032
831,0.0879765415
832,0.1075268864
833,0.1075268864
834,0.1075268864
835,0.3421309947
836,0.4496578693
837,0.4105571746
838,0.3519061565
839,0.3225806236
840,0.2834799575
841,0.2639296054
842,0.2443792819
843,0.4887585639
844,0.4398827075
845,0.3519061565
846,0.3030303001
847,0.2639296054
848,0.2248289346
849,0.2052785873
850,0.1955034160
851,0.1857282543
852,0.1564027309
853,0.1368523955
854,0.1368523955
855,0.1173020482
856,0.1270772218
857,0.1075268864
858,0.0879765415
859,0.0782013654
860,0.0782013654
861,0.0684261989
862,0.0782013654
863,0.0684261989
864,0.0586510229
865,0.0586510229
866,0.0488758516
867,0.0586510229
868,0.0586510229
869,0.0488758516
870,0.0488758516
871,0.0488758516
872,0.0488758516
873,0.0391006832
874,0.0391006832
875,0.0488758516
876,0.0586510229
877,0.0684261989
878,0.0782013654
879,0.0684261989
880,0.0586510229
881,0.0488758516
882,0.0488758516
883,0.0586510229
884,0.0488758516
885,0.0488758516
886,0.0391006832
887,0.0293255119
888,0.0488758516
889,0.0391006832
890,0.0391006832
891,0.0391006832
892,0.0391006832
893,0.0293255119
894,0.0293255119
895,0.0195503416
896,0.0195503416
897,0.0195503416
898,0.0195503416
899,0.0195503416
900,0.0097751703
901,0.0097751703
902,0.0097751703
903,0.0097751703
904,0.0097751703
905,0.0097751703
906,0.0097751703
907,0.0097751703
908,0.0097751703
909,0.0293255119
910,0.0488758516
911,0.0391006832
912,0.0293255119
913,0.0195503416
914,0.0195503416
915,0.0097751703
916,0.0097751703
917,0.0097751703
918,0.0097751703
919,0.0097751703
920,0.0195503416
921,0.0195503416
922,0.0293255119
923,0.0293255119
924,0.0195503416
925,0.0195503416
926,0.0097751703
927,0.0097751703
928,0.0000000000
929,0.0000000000
930,0.0000000000
931,0.0000000000
932,0.0000000000
933,0.0000000000
934,0.0000000000
935,0.0000000000
936,0.0000000000
937,0.0000000000
938,0.0000000000
939,0.0000000000
940,0.0000000000
941,0.0000000000
942,0.0000000000
943,0.0000000000
944,0.0000000000
945,0.0000000000
946,0.0000000000
947,0.0000000000
948,0.0000000000
949,0.0000000000
950,0.0097751703
951,0.0195503416
952,0.0293255119
953,0.0391006832
954,0.0488758516
955,0.0586510229
956,0.0586510229
957,0.0586510229
958,0.0488758516
959,0.0586510229
960,0.0586510229
961,0.0782013654
962,0.0684261989
963,0.0879765415
964,0.0879765415
965,0.0879765415
966,0.0977517032
967,0.1173020482
968,0.1173020482
969,0.1368523955
970,0.1368523955
971,0.1368523955
972,0.1270772218
973,0.1368523955
974,0.1466275596
975,0.1368523955
976,0.1270772218
977,0.1270772218
978,0.1173020482
979,0.1075268864
980,0.0879765415
981,0.0977517032
982,0.0977517032
983,0.0977517032
984,0.0879765415
985,0.0879765415
986,0.0977517032
987,0.0977517032
988,0.0879765415
989,0.0879765415
990,0.0782013654
991,0.0684261989
992,0.0782013654
993,0.0782013654
994,0.0684261989
995,0.0586510229
996,0.0977517032
997,0.0879765415
998,0.0782013654
999,0.0684261989
1000,0.0684261989
1001,0.3030303001
1002,0.2541544437
1003,0.2052785873
1004,0.1661779165
1005,0.1368523955
1006,0.1173020482
1007,0.1075268864
1008,0.0977517032
1009,0.0879765415
1010,0.0782013654
1011,0.0684261989
1012,0.0586510229
1013,0.0488758516
1014,0.0488758516
1015,0.0488758516
1016,0.0586510229
1017,0.0586510229
1018,0.0488758516
1019,0.0488758516
1020,0.0391006832
1021,0.0391006832
1022,0.0488758516
1023,0.0391006832
1024,0.0391006832
1025,0.0293255119
1026,0.0293255119
1027,0.0195503416
1028,0.0391006832
1029,0.0293255119
1030,0.0293255119
1031,0.0293255119
1032,0.0293255119
1033,0.0195503416
1034,0.0195503416
1035,0.0097751703
1036,0.0097751703
1037,0.0195503416
1038,0.0097751703
1039,0.0097751703
1040,0.0097751703
1041,0.0097751703
1042,0.0195503416
1043,0.0195503416
1044,0.0195503416
1045,0.0391006832
1046,0.0391006832
1047,0.0293255119
1048,0.0293255119
1049,0.0293255119
1050,0.0195503416
1051,0.0195503416
1052,0.0195503416
1053,0.0097751703
1054,0.0195503416
1055,0.0097751703
1056,0.0097751703
1057,0.0097751703
1058,0.0195503416
1059,0.0195503416
1060,0.0097751703
1061,0.0097751703
1062,0.0097751703
1063,0.0000000000
1064,0.0000000000
1065,0.0000000000
1066,0.0000000000
1067,0.0000000000
1068,0.0000000000
1069,0.0000000000
1070,0.0000000000
1071,0.0000000000
1072,0.0000000000
1073,0.0000000000
1074,0.0000000000
1075,0.0097751703
1076,0.0097751703
1077,0.0097751703
1078,0.0097751703
1079,0.0195503416
1080,0.0097751703
1081,0.0097751703
1082,0.0097751703
1083,0.0097751703
1084,0.0000000000
1085,0.0000000000
1086,0.0000000000
1087,0.0097751703
1088,0.0097751703
1089,0.0195503416
1090,0.0195503416
1091,0.0293255119
1092,0.0488758516
1093,0.0488758516
1094,0.0586510229
1095,0.0684261989
1096,0.0782013654
1097,0.0879765415
1098,0.0879765415
1099,0.0684261989
1100,0.0782013654
1101,0.1075268864
1102,0.0977517032
1103,0.0977517032
1104,0.0879765415
1105,0.0684261989
1106,0.0879765415
1107,0.0879765415
1108,0.1075268864
1109,0.1173020482
1110,0.1270772218
1111,0.1564027309
1112,0.1466275596
1113,0.1466275596
1114,0.1466275596
1115,0.1466275596
1116,0.1466275596
1117,0.1368523955
1118,0.1368523955
1119,0.1270772218
1120,0.1075268864
1121,0.0977517032
1122,0.0977517032
1123,0.1075268864
1124,0.1075268864
1125,0.1173020482
1126,0.1270772218
1127,0.1173020482
1128,0.1075268864
1129,0.1075268864
1130,0.1075268864
1131,0.0977517032
1132,0.1075268864
1133,0.1075268864
1134,0.1075268864
1135,0.0977517032
1136,0.0977517032
1137,0.1075268864
1138,0.0977517032
1139,0.1075268864
1140,0.1075268864
1141,0.1075268864
1142,0.0977517032
1143,0.0977517032
1144,0.0977517032
1145,0.0977517032
1146,0.0977517032
1147,0.0977517032
1148,0.0879765415
1149,0.0879765415
1150,0.0782013654
1151,0.0782013654
1152,0.0879765415
1153,0.0782013654
1154,0.0782013654
1155,0.0684261989
1156,0.0684261989
1157,0.0684261989
1158,0.0586510229
1159,0.0684261989
1160,0.0684261989
1161,0.0586510229
1162,0.0586510229
1163,0.0488758516
1164,0.0488758516
1165,0.0488758516
1166,0.0391006832
1167,0.0391006832
1168,0.0391006832
1169,0.0391006832
1170,0.0391006832
1171,0.0391006832
1172,0.0293255119
1173,0.0293255119
1174,0.0293255119
1175,0.0195503416
1176,0.0293255119
1177,0.0391006832
1178,0.0293255119
1179,0.0293255119
1180,0.0293255119
1181,0.0293255119
1182,0.0391006832
1183,0.0293255119
1184,0.0293255119
1185,0.0195503416
1186,0.0293255119
1187,0.0293255119
1188,0.0293255119
1189,0.0488758516
1190,0.0684261989
1191,0.0586510229
1192,0.0586510229
1193,0.0488758516
1194,0.0488758516
1195,0.0391006832
1196,0.0488758516
1197,0.0391006832
1198,0.0293255119
1199,0.0293255119
1200,0.0293255119
1201,0.0293255119
1202,0.0293255119
1203,0.0195503416
1204,0.0195503416
1205,0.0195503416
1206,0.0195503416
1207,0.0195503416
1208,0.0195503416
1209,0.0195503416
1210,0.0195503416
1211,0.0293255119
1212,0.0293255119
1213,0.0195503416
1214,0.0293255119
1215,0.0293255119
1216,0.0195503416
1217,0.0293255119
1218,0.0586510229
1219,0.0586510229
1220,0.0684261989
1221,0.0684261989
1222,0.0879765415
1223,0.0782013654
1224,0.0879765415
1225,0.1075268864
1226,0.1270772218
1227,0.1270772218
1228,0.1173020482
1229,0.1270772218
1230,0.1466275596
1231,0.1564027309
1232,0.1759530782
1233,0.1661779165
1234,0.1564027309
1235,0.1564027309
1236,0.1368523955
1237,0.1466275596
1238,0.1564027309
1239,0.1564027309
1240,0.1661779165
1241,0.1564027309
1242,0.1466275596
1243,0.1368523955
1244,0.1368523955
1245,0.1173020482
1246,0.1173020482
1247,0.1173020482
1248,0.1368523955
1249,0.1173020482
1250,0.0977517032
1251,0.1075268864
1252,0.0977517032
1253,0.0879765415
1254,0.0977517032
1255,0.0879765415
1256,0.0977517032
1257,0.0977517032
1258,0.0879765415
1259,0.0782013654
1260,0.0684261989
1261,0.0586510229
1262,0.0684261989
1263,0.0586510229
1264,0.0586510229
1265,0.0586510229
1266,0.0488758516
1267,0.0586510229
1268,0.0684261989
1269,0.0684261989
1270,0.0586510229
1271,0.0586510229
1272,0.0488758516
1273,0.0488758516
1274,0.0488758516
1275,0.0391006832
1276,0.0391006832
1277,0.0391006832
1278,0.0391006832
1279,0.0586510229
1280,0.0488758516
1281,0.0488758516
1282,0.0391006832
1283,0.0391006832
1284,0.0488758516
1285,0.0586510229
1286,0.0586510229
1287,0.0684261989
1288,0.0684261989
1289,0.0782013654
1290,0.0684261989
1291,0.0684261989
1292,0.0684261989
1293,0.0586510229
1294,0.0586510229
1295,0.0586510229
1296,0.0488758516
1297,0.0488758516
1298,0.0293255119
1299,0.0293255119
1300,0.0293255119
1301,0.0293255119
1302,0.0293255119
1303,0.0293255119
1304,0.0195503416
1305,0.0195503416
1306,0.0195503416
1307,0.0195503416
1308,0.0195503416
1309,0.0097751703
1310,0.0097751703
1311,0.0097751703
1312,0.0000000000
1313,0.0097751703
1314,0.0000000000
1315,0.0000000000
1316,0.0000000000
1317,0.0097751703
1318,0.0195503416
1319,0.0195503416
1320,0.0293255119
1321,0.0293255119
1322,0.0293255119
1323,0.0293255119
1324,0.0195503416
1325,0.0195503416
1326,0.0195503416
1327,0.0097751703
1328,0.0097751703
1329,0.0097751703
1330,0.0097751703
1331,0.0097751703
1332,0.0000000000
1333,0.0097751703
1334,0.0097751703
1335,0.0000000000
1336,0.0000000000
1337,0.0097751703
1338,0.0000000000
1339,0.0000000000
1340,0.0000000000
1341,0.0000000000
1342,0.0000000000
1343,0.0097751703
1344,0.0097751703
1345,0.0097751703
1346,0.0097751703
1347,0.0195503416
1348,0.0195503416
1349,0.0293255119
1350,0.0488758516
1351,0.0488758516
1352,0.0488758516
1353,0.0391006832
1354,0.0586510229
1355,0.1173020482
1356,0.1270772218
1357,0.1466275596
1358,0.1661779165
1359,0.1466275596
1360,0.1466275596
1361,0.1466275596
1362,0.1759530782
1363,0.1759530782
1364,0.1564027309
1365,0.1564027309
1366,0.1955034160
1367,0.1759530782
1368,0.1661779165
1369,0.1466275596
1370,0.1368523955
1371,0.1466275596
1372,0.1368523955
1373,0.1173020482
1374,0.1075268864
1375,0.0879765415
1376,0.0879765415
1377,0.0879765415
1378,0.1075268864
1379,0.1075268864
1380,0.0977517032
1381,0.1075268864
1382,0.1075268864
1383,0.0977517032
1384,0.0977517032
1385,0.0879765415
1386,0.0782013654
1387,0.0782013654
1388,0.0684261989
1389,0.0782013654
1390,0.0586510229
1391,0.0684261989
1392,0.0684261989
1393,0.0782013654
1394,0.0782013654
1395,0.0684261989
1396,0.0684261989
1397,0.0684261989
1398,0.0586510229
1399,0.0586510229
1400,0.0488758516
1401,0.0586510229
1402,0.0488758516
1403,0.0586510229
1404,0.0488758516
1405,0.0586510229
1406,0.0684261989
1407,0.0586510229
1408,0.0488758516
1409,0.0488758516
1410,0.0488758516
1411,0.0488758516
1412,0.0391006832
1413,0.0293255119
1414,0.0391006832
1415,0.0391006832
1416,0.0391006832
1417,0.0293255119
1418,0.0488758516
1419,0.0586510229
1420,0.0586510229
1421,0.0586510229
1422,0.0684261989
1423,0.0684261989
1424,0.0684261989
1425,0.0586510229
1426,0.0488758516
1427,0.0391006832
1428,0.0488758516
1429,0.0488758516
1430,0.0488758516
1431,0.0391006832
1432,0.0293255119
1433,0.0391006832
1434,0.0293255119
1435,0.0293255119
1436,0.0293255119
1437,0.0293255119
1438,0.0586510229
1439,0.0684261989
1440,0.0684261989
1441,0.0684261989
1442,0.0684261989
1443,0.0782013654
1444,0.1466275596
1445,0.2150537729
1446,0.2052785873
1447,0.2834799575
1448,0.3616813421
1449,0.3225806236
1450,0.2834799575
1451,0.2541544437
1452,0.2443792819
1453,0.2541544437
1454,0.2248289346
1455,0.1955034160
1456,0.1857282543
1457,0.1857282543
1458,0.1661779165
1459,0.1368523955
1460,0.1270772218
1461,0.1270772218
1462,0.1270772218
1463,0.0977517032
1464,0.0782013654
1465,0.0684261989
1466,0.0488758516
1467,0.0391006832
1468,0.0391006832
1469,0.0293255119
1470,0.0391006832
1471,0.0391006832
1472,0.0488758516
1473,0.0391006832
1474,0.0391006832
1475,0.0488758516
1476,0.0488758516
1477,0.0488758516
1478,0.0586510229
1479,0.0684261989
1480,0.0782013654
1481,0.0879765415
1482,0.1075268864
1483,0.1270772218
1484,0.1368523955
1485,0.1368523955
1486,0.1270772218
1487,0.1368523955
1488,0.1661779165
1489,0.1661779165
1490,0.1466275596
1491,0.1466275596
1492,0.1270772218
1493,0.1270772218
1494,0.1173020482
1495,0.1270772218
1496,0.1270772218
1497,0.1270772218
1498,0.1173020482
1499,0.1075268864
1500,0.1075268864
1501,0.0879765415
1502,0.0782013654
1503,0.0684261989
1504,0.0782013654
1505,0.0782013654
1506,0.0684261989
1507,0.0586510229
1508,0.0586510229
1509,0.0586510229
1510,0.0684261989
1511,0.0586510229
1512,0.0586510229
1513,0.0586510229
1514,0.0586510229
1515,0.0586510229
1516,0.0586510229
1517,0.0586510229
1518,0.0488758516
1519,0.0488758516
1520,0.0488758516
1521,0.0488758516
1522,0.0391006832
1523,0.0293255119
1524,0.0293255119
1525,0.0293255119
1526,0.0391006832
1527,0.0391006832
1528,0.0391006832
1529,0.0391006832
1530,0.0391006832
1531,0.0293255119
1532,0.0391006832
1533,0.0391006832
1534,0.0391006832
1535,0.0391006832
1536,0.0391006832
1537,0.0293255119
1538,0.0293255119
1539,0.0293255119
1540,0.0293255119
1541,0.0293255119
1542,0.0195503416
1543,0.0195503416
1544,0.0195503416
1545,0.0195503416
1546,0.0195503416
1547,0.0293255119
1548,0.0293255119
1549,0.0293255119
1550,0.0293255119
1551,0.0293255119
1552,0.0391006832
1553,0.0293255119
1554,0.0195503416
1555,0.0195503416
1556,0.0195503416
1557,0.0195503416
1558,0.0293255119
1559,0.0293255119
1560,0.0195503416
1561,0.0195503416
1562,0.0195503416
1563,0.0195503416
1564,0.0195503416
1565,0.0195503416
1566,0.0195503416
1567,0.0293255119
1568,0.0195503416
1569,0.0293255119
1570,0.0293255119
1571,0.0195503416
1572,0.0195503416
1573,0.0293255119
1574,0.0293255119
1575,0.0293255119
1576,0.0195503416
1577,0.0195503416
1578,0.0097751703
1579,0.0097751703
1580,0.0097751703
1581,0.0097751703
1582,0.0097751703
1583,0.0097751703
1584,0.0097751703
1585,0.0195503416
1586,0.0195503416
1587,0.0195503416
1588,0.0195503416
1589,0.0195503416
1590,0.0195503416
1591,0.0195503416
1592,0.0293255119
1593,0.0293255119
1594,0.0293255119
1595,0.0293255119
1596,0.0293255119
1597,0.0684261989
1598,0.0782013654
1599,0.0879765415
1600,0.0977517032
1601,0.1075268864
1602,0.1075268864
1603,0.1466275596
1604,0.1564027309
1605,0.1661779165
1606,0.1857282543
1607,0.1661779165
1608,0.1759530782
1609,0.2150537729
1610,0.1759530782
1611,0.1661779165
1612,0.1661779165
1613,0.1661779165
1614,0.1857282543
1615,0.1759530782
1616,0.1759530782
1617,0.1759530782
1618,0.1564027309
1619,0.1368523955
1620,0.1368523955
1621,0.1270772218
1622,0.1270772218
1623,0.1075268864
1624,0.0879765415
1625,0.0782013654
1626,0.0879765415
1627,0.0782013654
1628,0.0684261989
1629,0.0684261989
1630,0.0684261989
1631,0.0684261989
1632,0.0782013654
1633,0.0684261989
1634,0.0586510229
1635,0.0586510229
1636,0.0488758516
1637,0.0391006832
1638,0.0488758516
1639,0.0391006832
1640,0.0488758516
1641,0.0586510229
1642,0.0586510229
1643,0.0488758516
1644,0.0586510229
1645,0.0488758516
1646,0.0391006832
1647,0.0391006832
1648,0.0488758516
1649,0.0488758516
1650,0.0782013654
1651,0.0586510229
1652,0.0586510229
1653,0.0586510229
1654,0.0586510229
1655,0.0586510229
1656,0.0586510229
1657,0.0488758516
1658,0.0391006832
1659,0.0391006832
1660,0.0488758516
1661,0.0488758516
1662,0.0391006832
1663,0.0391006832
1664,0.0488758516
1665,0.0586510229
1666,0.0586510229
1667,0.0586510229
1668,0.0586510229
1669,0.0391006832
1670,0.0391006832
1671,0.0391006832
1672,0.0293255119
1673,0.0391006832
1674,0.0488758516
1675,0.0488758516
1676,0.0391006832
1677,0.0488758516
1678,0.0488758516
1679,0.0391006832
1680,0.0293255119
1681,0.0293255119
1682,0.0293255119
1683,0.0293255119
1684,0.0293255119
1685,0.0293255119
1686,0.0293255119
1687,0.0195503416
1688,0.0195503416
1689,0.0293255119
1690,0.0293255119
1691,0.0293255119
1692,0.0293255119
1693,0.0293255119
1694,0.0293255119
1695,0.0195503416
1696,0.0293255119
1697,0.0293255119
1698,0.0195503416
1699,0.0293255119
1700,0.0195503416
1701,0.0195503416
1702,0.0195503416
1703,0.0097751703
1704,0.0097751703
1705,0.0097751703
1706,0.0097751703
1707,0.0097751703
1708,0.0097751703
1709,0.0097751703
1710,0.0097751703
1711,0.0097751703
1712,0.0097751703
1713,0.0195503416
1714,0.0293255119
1715,0.0195503416
1716,0.0195503416
1717,0.0195503416
1718,0.0195503416
1719,0.0195503416
1720,0.0293255119
1721,0.0293255119
1722,0.0293255119
1723,0.0293255119
1724,0.0391006832
1725,0.0586510229
1726,0.0782013654
1727,0.0977517032
1728,0.0879765415
1729,0.1173020482
1730,0.1270772218
1731,0.1173020482
1732,0.1466275596
1733,0.2150537729
1734,0.2834799575
1735,0.2834799575
1736,0.2932551193
1737,0.2541544437
1738,0.2443792819
1739,0.2052785873
1740,0.1857282543
1741,0.1759530782
1742,0.1955034160
1743,0.1661779165
1744,0.1564027309
1745,0.1368523955
1746,0.1270772218
1747,0.1270772218
1748,0.1270772218
1749,0.1270772218
1750,0.1173020482
1751,0.1173020482
1752,0.1075268864
1753,0.0977517032
1754,0.0879765415
1755,0.0782013654
1756,0.0684261989
1757,0.0684261989
1758,0.0586510229
1759,0.0488758516
1760,0.0488758516
1761,0.0586510229
1762,0.0684261989
1763,0.0586510229
1764,0.0586510229
1765,0.0586510229
1766,0.0488758516
1767,0.0586510229
1768,0.0488758516
1769,0.0391006832
1770,0.0391006832
1771,0.0391006832
1772,0.0391006832
1773,0.0293255119
1774,0.0293255119
1775,0.0293255119
1776,0.0293255119
1777,0.0391006832
1778,0.0293255119
1779,0.0293255119
1780,0.0488758516
1781,0.0586510229
1782,0.0488758516
1783,0.0586510229
1784,0.0488758516
1785,0.0488758516
1786,0.0488758516
1787,0.0684261989
1788,0.0684261989
1789,0.0586510229
1790,0.0586510229
1791,0.0488758516
1792,0.0391006832
1793,0.0586510229
1794,0.0684261989
1795,0.0684261989
1796,0.1075268864
1797,0.1564027309
1798,0.1661779165
1799,0.1661779165
1800,0.1466275596
1801,0.1270772218
1802,0.1075268864
1803,0.0977517032
1804,0.0879765415
1805,0.0684261989
1806,0.0586510229
1807,0.0488758516
1808,0.0391006832
1809,0.0391006832
1810,0.0293255119
1811,0.0391006832
1812,0.0293255119
1813,0.0195503416
1814,0.0195503416
1815,0.0097751703
1816,0.0195503416
1817,0.0195503416
1818,0.0195503416
1819,0.0097751703
1820,0.0195503416
1821,0.0195503416
1822,0.0195503416
1823,0.0195503416
1824,0.0097751703
1825,0.0195503416
1826,0.0195503416
1827,0.0097751703
1828,0.0097751703
1829,0.0097751703
1830,0.0097751703
1831,0.0293255119
1832,0.0195503416
1833,0.0195503416
1834,0.0195503416
1835,0.0195503416
1836,0.0195503416
1837,0.0195503416
1838,0.0097751703
1839,0.0097751703
1840,0.0195503416
1841,0.0195503416
1842,0.0195503416
1843,0.0195503416
1844,0.0097751703
1845,0.0097751703
1846,0.0097751703
1847,0.0097751703
1848,0.0097751703
1849,0.0000000000
1850,0.0097751703
1851,0.0097751703
1852,0.0097751703
1853,0.0097751703
1854,0.0097751703
1855,0.0097751703
1856,0.0097751703
1857,0.0097751703
1858,0.0195503416
1859,0.0195503416
1860,0.0293255119
1861,0.0488758516
1862,0.0586510229
1863,0.0782013654
1864,0.1368523955
1865,0.1857282543
1866,0.1857282543
1867,0.1564027309
1868,0.1466275596
1869,0.1564027309
1870,0.1661779165
1871,0.2150537729
1872,0.2346040964
1873,0.2737047910
1874,0.2639296054
1875,0.2346040964
1876,0.2248289346
1877,0.2541544437
1878,0.2248289346
1879,0.1955034160
1880,0.1661779165
1881,0.1661779165
1882,0.1564027309
1883,0.1368523955
1884,0.1173020482
1885,0.1173020482
1886,0.0977517032
1887,0.0879765415
1888,0.0782013654
1889,0.0782013654
1890,0.0782013654
1891,0.0684261989
1892,0.0684261989
1893,0.0684261989
1894,0.0684261989
1895,0.0684261989
1896,0.0782013654
1897,0.0684261989
1898,0.0782013654
1899,0.0684261989
1900,0.0586510229
1901,0.0586510229
1902,0.0488758516
1903,0.0488758516
1904,0.0586510229
1905,0.0391006832
1906,0.0391006832
1907,0.0391006832
1908,0.0488758516
1909,0.0586510229
1910,0.0488758516
1911,0.0684261989
1912,0.0684261989
1913,0.0684261989
1914,0.0586510229
1915,0.0586510229
1916,0.0782013654
1917,0.0879765415
1918,0.0879765415
1919,0.0879765415
1920,0.0684261989
1921,0.0782013654
1922,0.0684261989
1923,0.0684261989
1924,0.0879765415
1925,0.1075268864
1926,0.0977517032
1927,0.0879765415
1928,0.0782013654
1929,0.0782013654
1930,0.0684261989
1931,0.0684261989
1932,0.0586510229
1933,0.0586510229
1934,0.0586510229
1935,0.0586510229
1936,0.0586510229
1937,0.0488758516
1938,0.0488758516
1939,0.0488758516
1940,0.0391006832
1941,0.0293255119
1942,0.0391006832
1943,0.0488758516
1944,0.0391006832
1945,0.0488758516
1946,0.0391006832
1947,0.0293255119
1948,0.0391006832
1949,0.0293255119
1950,0.0293255119
1951,0.0195503416
1952,0.0195503416
1953,0.0195503416
1954,0.0097751703
1955,0.0097751703
1956,0.0097751703
1957,0.0195503416
1958,0.0195503416
1959,0.0097751703
1960,0.0097751703
1961,0.0000000000
1962,0.0000000000
1963,0.0000000000
1964,0.0000000000
1965,0.0000000000
1966,0.0000000000
1967,0.0000000000
1968,0.0000000000
1969,0.0000000000
1970,0.0097751703
1971,0.0097751703
1972,0.0097751703
1973,0.0097751703
1974,0.0195503416
1975,0.0293255119
1976,0.0391006832
1977,0.0391006832
1978,0.0488758516
1979,0.0391006832
1980,0.0488758516
1981,0.0488758516
1982,0.0488758516
1983,0.0684261989
1984,0.0977517032
1985,0.1270772218
1986,0.1173020482
1987,0.1466275596
1988,0.1564027309
1989,0.1466275596
1990,0.1466275596
1991,0.2346040964
1992,0.2346040964
1993,0.2150537729
1994,0.2150537729
1995,0.2052785873
1996,0.2834799575
1997,0.2737047910
1998,0.2737047910
1999,0.2443792819
2000,0.2346040964
2001,0.9090909004
2002,0.7820136547
2003,0.6549364089
2004,0.5865102291
2005,0.5278592109
2006,0.4789833545
2007,0.4203323364
2008,0.4105571746
2009,0.3714565038
2010,0.3323558330
2011,0.3128054618
2012,0.2932551193
2013,0.2541544437
2014,0.2443792819
2015,0.2248289346
2016,0.2052785873
2017,0.1857282543
2018,0.1759530782
2019,0.1564027309
2020,0.1466275596
2021,0.1564027309
2022,0.1564027309
2023,0.1368523955
2024,0.1270772218
2025,0.1564027309
2026,0.1564027309
2027,0.1368523955
2028,0.1368523955
2029,0.1368523955
2030,0.1466275596
2031,0.1466275596
2032,0.1466275596
2033,0.1368523955
2034,0.1270772218
2035,0.1270772218
2036,0.1270772218
2037,0.1270772218
2038,0.1368523955
2039,0.1661779165
2040,0.1466275596
2041,0.1759530782
2042,0.1857282543
2043,0.1759530782
2044,0.1564027309
2045,0.1564027309
2046,0.1466275596
2047,0.1368523955
2048,0.1270772218
2049,0.1368523955
2050,0.1270772218
2051,0.1173020482
2052,0.1173020482
2053,0.1075268864
2054,0.1075268864
2055,0.1075268864
2056,0.0977517032
2057,0.0977517032
2058,0.0977517032
2059,0.0977517032
2060,0.0977517032
2061,0.0879765415
2062,0.0782013654
2063,0.0879765415
2064,0.0977517032
2065,0.0879765415
2066,0.0879765415
2067,0.0879765415
2068,0.0782013654
2069,0.0684261989
2070,0.0782013654
2071,0.0782013654
2072,0.0782013654
2073,0.0684261989
2074,0.0684261989
2075,0.0684261989
2076,0.0684261989
2077,0.0586510229
2078,0.0586510229
2079,0.0586510229
2080,0.0586510229
2081,0.0684261989
2082,0.0684261989
2083,0.0684261989
2084,0.0684261989
2085,0.0684261989
2086,0.0782013654
2087,0.0782013654
2088,0.0684261989
2089,0.0684261989
2090,0.0782013654
2091,0.0684261989
2092,0.0684261989
2093,0.0879765415
2094,0.0782013654
2095,0.1075268864
2096,0.1661779165
2097,0.1564027309
2098,0.1759530782
2099,0.1759530782
2100,0.1564027309
2101,0.1466275596
2102,0.1564027309
2103,0.1564027309
2104,0.1661779165
2105,0.1564027309
2106,0.1466275596
2107,0.1466275596
2108,0.1564027309
2109,0.1759530782
2110,0.2052785873
2111,0.2248289346
2112,0.2346040964
2113,0.2150537729
2114,0.2150537729
2115,0.2248289346
2116,0.2346040964
2117,0.2443792819
2118,0.2834799575
2119,0.2834799575
2120,0.2639296054
2121,0.2932551193
2122,0.2932551193
2123,0.2834799575
2124,0.2932551193
2125,0.2932551193
2126,0.3030303001
2127,0.3421309947
2128,0.3030303001
2129,0.2834799575
2130,0.2932551193
2131,0.2834799575
2132,0.2639296054
2133,0.2932551193
2134,0.2834799575
2135,0.2737047910
2136,0.2541544437
2137,0.2541544437
2138,0.2248289346
2139,0.2150537729
2140,0.2052785873
2141,0.1857282543
2142,0.1661779165
2143,0.1857282543
2144,0.1857282543
2145,0.2052785873
2146,0.1857282543
2147,0.1759530782
2148,0.1759530782
2149,0.1564027309
2150,0.1564027309
2151,0.1466275596
2152,0.1368523955
2153,0.1368523955
2154,0.1368523955
2155,0.1368523955
2156,0.1564027309
2157,0.1955034160
2158,0.1857282543
2159,0.1661779165
2160,0.1564027309
2161,0.1368523955
2162,0.1368523955
2163,0.1368523955
2164,0.1270772218
2165,0.1173020482
2166,0.1173020482
2167,0.1270772218
2168,0.1466275596
2169,0.1466275596
2170,0.1368523955
2171,0.1466275596
2172,0.1466275596
2173,0.1564027309
2174,0.1661779165
2175,0.1564027309
2176,0.1466275596
2177,0.1368523955
2178,0.1466275596
2179,0.1270772218
2180,0.1173020482
2181,0.1075268864
2182,0.0977517032
2183,0.1075268864
2184,0.1173020482
2185,0.0977517032
2186,0.1075268864
2187,0.0977517032
2188,0.0879765415
2189,0.0977517032
2190,0.1173020482
2191,0.1368523955
2192,0.1270772218
2193,0.1270772218
2194,0.1270772218
2195,0.1270772218
2196,0.1368523955
2197,0.1173020482
2198,0.1075268864
2199,0.1075268864
2200,0.0879765415
2201,0.0977517032
2202,0.1075268864
2203,0.0879765415
2204,0.0977517032
2205,0.0977517032
2206,0.0879765415
2207,0.0977517032
2208,0.0879765415
2209,0.0879765415
2210,0.0879765415
2211,0.0782013654
2212,0.0782013654
2213,0.0879765415
2214,0.0782013654
2215,0.0782013654
2216,0.0977517032
2217,0.1075268864
2218,0.0977517032
2219,0.0879765415
2220,0.1075268864
2221,0.0879765415
2222,0.0879765415
2223,0.0879765415
2224,0.0879765415
2225,0.0879765415
2226,0.0879765415
2227,0.0879765415
2228,0.1075268864
2229,0.1075268864
2230,0.1270772218
2231,0.1466275596
2232,0.1564027309
2233,0.1759530782
2234,0.1759530782
2235,0.1661779165
2236,0.1857282543
2237,0.1759530782
2238,0.1759530782
2239,0.1661779165
2240,0.1661779165
2241,0.1955034160
2242,0.1857282543
2243,0.1955034160
2244,0.1955034160
2245,0.2150537729
2246,0.2639296054
2247,0.2737047910
2248,0.2737047910
2249,0.2737047910
2250,0.2541544437
2251,0.2248289346
2252,0.3225806236
2253,0.3128054618
2254,0.3128054618
2255,0.2737047910
2256,0.2932551193
2257,0.2834799575
2258,0.2834799575
2259,0.2737047910
2260,0.2834799575
2261,0.3128054618
2262,0.3128054618
2263,0.2834799575
2264,0.2443792819
2265,0.2541544437
2266,0.2346040964
2267,0.2443792819
2268,0.2248289346
2269,0.2052785873
2270,0.1857282543
2271,0.1661779165
2272,0.1661779165
2273,0.1857282543
2274,0.1857282543
2275,0.1759530782
2276,0.1466275596
2277,0.1564027309
2278,0.1466275596
2279,0.1368523955
2280,0.1466275596
2281,0.1270772218
2282,0.1270772218
2283,0.1173020482
2284,0.1075268864
2285,0.0977517032
2286,0.0977517032
2287,0.1075268864
2288,0.1075268864
2289,0.1173020482
2290,0.1270772218
2291,0.1173020482
2292,0.1075268864
2293,0.0977517032
2294,0.1075268864
2295,0.1075268864
2296,0.0977517032
2297,0.0977517032
2298,0.0879765415
2299,0.0977517032
2300,0.0879765415
2301,0.0879765415
2302,0.0879765415
2303,0.0782013654
2304,0.0684261989
2305,0.0684261989
2306,0.0684261989
2307,0.0782013654
2308,0.0684261989
2309,0.0782013654
2310,0.0879765415
2311,0.0782013654
2312,0.0782013654
2313,0.0684261989
2314,0.0782013654
2315,0.0782013654
2316,0.0782013654
2317,0.0879765415
2318,0.0684261989
2319,0.0684261989
2320,0.0684261989
2321,0.0782013654
2322,0.0782013654
2323,0.0879765415
2324,0.0879765415
2325,0.0782013654
2326,0.0782013654
2327,0.0782013654
2328,0.0684261989
2329,0.0782013654
2330,0.0782013654
2331,0.0782013654
2332,0.0684261989
2333,0.0782013654
2334,0.0782013654
2335,0.0782013654
2336,0.0782013654
2337,0.0782013654
2338,0.0782013654
2339,0.0684261989
2340,0.0684261989
2341,0.0586510229
2342,0.0586510229
2343,0.0488758516
2344,0.0586510229
2345,0.0586510229
2346,0.0586510229
2347,0.0586510229
2348,0.0684261989
2349,0.0684261989
2350,0.0684261989
2351,0.0684261989
2352,0.0684261989
2353,0.0782013654
2354,0.0782013654
2355,0.0782013654
2356,0.0782013654
2357,0.0782013654
2358,0.0977517032
2359,0.1368523955
2360,0.1270772218
2361,0.1270772218
2362,0.1466275596
2363,0.1564027309
2364,0.1466275596
2365,0.1564027309
2366,0.1661779165
2367,0.1759530782
2368,0.1955034160
2369,0.1955034160
2370,0.1955034160
2371,0.1857282543
2372,0.1759530782
2373,0.1857282543
2374,0.1955034160
2375,0.2150537729
2376,0.2248289346
2377,0.2346040964
2378,0.2443792819
2379,0.2541544437
2380,0.2541544437
2381,0.2443792819
2382,0.2639296054
2383,0.2443792819
2384,0.2248289346
2385,0.2541544437
2386,0.2541544437
2387,0.2443792819
2388,0.2248289346
2389,0.2052785873
2390,0.1857282543
2391,0.1759530782
2392,0.1368523955
2393,0.1564027309
2394,0.1466275596
2395,0.1466275596
2396,0.1368523955
2397,0.1368523955
2398,0.1466275596
2399,0.1368523955
2400,0.1270772218
2401,0.1173020482
2402,0.1173020482
2403,0.1075268864
2404,0.1075268864
2405,0.1270772218
2406,0.1173020482
2407,0.1173020482
2408,0.1173020482
2409,0.1075268864
2410,0.1075268864
2411,0.1075268864
2412,0.1075268864
2413,0.0879765415
2414,0.0782013654
2415,0.0782013654
2416,0.0782013654
2417,0.0782013654
2418,0.0684261989
2419,0.0782013654
2420,0.0684261989
2421,0.0782013654
2422,0.0684261989
2423,0.0782013654
2424,0.0684261989
2425,0.0782013654
2426,0.0684261989
2427,0.0684261989
2428,0.0684261989
2429,0.0684261989
2430,0.0782013654
2431,0.0782013654
2432,0.0879765415
2433,0.0977517032
2434,0.0879765415
2435,0.0879765415
2436,0.0977517032
2437,0.0879765415
2438,0.0977517032
2439,0.0782013654
2440,0.0782013654
2441,0.0782013654
2442,0.0684261989
2443,0.0684261989
2444,0.0684261989
2445,0.0782013654
2446,0.0782013654
2447,0.0684261989
2448,0.0684261989
2449,0.0782013654
2450,0.0684261989
2451,0.0782013654
2452,0.0684261989
2453,0.0684261989
2454,0.0684261989
2455,0.0684261989
2456,0.0684261989
2457,0.0684261989
2458,0.0684261989
2459,0.0684261989
2460,0.0586510229
2461,0.0586510229
2462,0.0586510229
2463,0.0488758516
2464,0.0488758516
2465,0.0586510229
2466,0.0684261989
2467,0.0586510229
2468,0.0586510229
2469,0.0586510229
2470,0.0586510229
2471,0.0586510229
2472,0.0488758516
2473,0.0586510229
2474,0.0586510229
2475,0.0488758516
2476,0.0586510229
2477,0.0586510229
2478,0.0586510229
2479,0.0586510229
2480,0.0782013654
2481,0.0684261989
2482,0.0782013654
2483,0.0782013654
2484,0.0879765415
2485,0.0977517032
2486,0.0977517032
2487,0.0977517032
2488,0.1270772218
2489,0.1368523955
2490,0.1368523955
2491,0.1368523955
2492,0.1368523955
2493,0.1564027309
2494,0.1759530782
2495,0.2052785873
2496,0.1857282543
2497,0.2052785873
2498,0.2150537729
2499,0.2150537729
2500,0.2150537729
2501,0.2052785873
2502,0.2150537729
2503,0.2443792819
2504,0.2639296054
2505,0.2737047910
2506,0.2541544437
2507,0.3323558330
2508,0.3225806236
2509,0.3323558330
2510,0.3323558330
2511,0.3225806236
2512,0.3225806236
2513,0.3323558330
2514,0.2834799575
2515,0.3030303001
2516,0.2932551193
2517,0.2541544437
2518,0.2443792819
2519,0.2443792819
2520,0.2346040964
2521,0.2150537729
2522,0.2346040964
2523,0.2052785873
2524,0.1955034160
2525,0.1759530782
2526,0.1857282543
2527,0.1661779165
2528,0.1661779165
2529,0.1661779165
2530,0.1466275596
2531,0.1564027309
2532,0.1466275596
2533,0.1368523955
2534,0.1368523955
2535,0.1270772218
2536,0.1270772218
2537,0.1270772218
2538,0.1368523955
2539,0.1466275596
2540,0.1368523955
2541,0.1368523955
2542,0.1270772218
2543,0.1270772218
2544,0.1466275596
2545,0.1270772218
2546,0.1173020482
2547,0.1270772218
2548,0.1173020482
2549,0.1173020482
2550,0.1075268864
2551,0.1075268864
2552,0.1173020482
2553,0.1075268864
2554,0.0977517032
2555,0.0879765415
2556,0.0879765415
2557,0.0879765415
2558,0.0879765415
2559,0.0879765415
2560,0.0879765415
2561,0.0782013654
2562,0.0782013654
2563,0.0782013654
2564,0.0782013654
2565,0.0684261989
2566,0.0684261989
2567,0.0586510229
2568,0.0684261989
2569,0.0684261989
2570,0.0684261989
2571,0.0782013654
2572,0.0684261989
2573,0.0684261989
2574,0.0782013654
2575,0.0684261989
2576,0.0782013654
2577,0.0782013654
2578,0.0684261989
2579,0.0782013654
2580,0.0782013654
2581,0.0782013654
2582,0.0782013654
2583,0.0879765415
2584,0.0684261989
2585,0.0684261989
2586,0.0586510229
2587,0.0586510229
2588,0.0586510229
2589,0.0488758516
2590,0.0684261989
2591,0.0684261989
2592,0.0586510229
2593,0.0684261989
2594,0.0586510229
2595,0.0586510229
2596,0.0586510229
2597,0.0586510229
2598,0.0586510229
2599,0.0586510229
2600,0.0586510229
2601,0.0488758516
2602,0.0488758516
2603,0.0586510229
2604,0.0586510229
2605,0.0586510229
2606,0.0586510229
2607,0.0684261989
2608,0.0586510229
2609,0.0488758516
2610,0.0586510229
2611,0.0586510229
2612,0.0684261989
2613,0.0586510229
2614,0.0586510229
2615,0.0586510229
2616,0.0488758516
2617,0.0586510229
2618,0.0488758516
2619,0.0488758516
2620,0.0488758516
2621,0.0488758516
2622,0.0488758516
2623,0.0488758516
2624,0.0488758516
2625,0.0488758516
2626,0.0586510229
2627,0.0684261989
2628,0.0782013654
2629,0.0782013654
2630,0.0782013654
2631,0.0782013654
2632,0.0879765415
2633,0.0782013654
2634,0.0782013654
2635,0.0684261989
2636,0.0684261989
2637,0.0684261989
2638,0.0782013654
2639,0.0782013654
2640,0.0879765415
2641,0.0977517032
2642,0.0977517032
2643,0.0977517032
2644,0.1173020482
2645,0.1173020482
2646,0.1270772218
2647,0.1270772218
2648,0.1368523955
2649,0.1466275596
2650,0.1368523955
2651,0.1661779165
2652,0.2052785873
2653,0.2248289346
2654,0.2639296054
2655,0.3323558330
2656,0.4496578693
2657,0.4203323364
2658,0.3812316703
2659,0.4105571746
2660,0.4203323364
2661,0.4007820129
2662,0.4594330310
2663,0.4105571746
2664,0.3714565038
2665,0.3421309947
2666,0.3030303001
2667,0.2834799575
2668,0.2639296054
2669,0.2346040964
2670,0.2248289346
2671,0.2150537729
2672,0.2052785873
2673,0.1857282543
2674,0.1857282543
2675,0.1857282543
2676,0.1857282543
2677,0.1759530782
2678,0.1564027309
2679,0.1661779165
2680,0.1661779165
2681,0.1466275596
2682,0.1466275596
2683,0.1661779165
2684,0.1466275596
2685,0.1368523955
2686,0.1368523955
2687,0.1173020482
2688,0.1368523955
2689,0.1661779165
2690,0.1759530782
2691,0.1955034160
2692,0.1955034160
2693,0.1857282543
2694,0.1857282543
2695,0.2052785873
2696,0.1857282543
2697,0.2052785873
2698,0.2737047910
2699,0.2834799575
2700,0.2737047910
2701,0.2834799575
2702,0.3030303001
2703,0.3128054618
2704,0.3421309947
2705,0.3323558330
2706,0.2932551193
2707,0.2932551193
2708,0.2737047910
2709,0.2443792819
2710,0.2248289346
2711,0.2150537729
2712,0.1857282543
2713,0.1955034160
2714,0.1661779165
2715,0.1564027309
2716,0.1368523955
2717,0.1368523955
2718,0.1270772218
2719,0.1075268864
2720,0.0977517032
2721,0.0879765415
2722,0.0879765415
2723,0.1075268864
2724,0.0977517032
2725,0.1075268864
2726,0.1075268864
2727,0.0977517032
2728,0.1075268864
2729,0.1173020482
2730,0.1173020482
2731,0.1075268864
2732,0.1075268864
2733,0.0977517032
2734,0.0977517032
2735,0.0879765415
2736,0.0879765415
2737,0.0782013654
2738,0.0684261989
2739,0.0684261989
2740,0.0586510229
2741,0.0488758516
2742,0.0488758516
2743,0.0391006832
2744,0.0586510229
2745,0.0586510229
2746,0.0586510229
2747,0.0586510229
2748,0.0586510229
2749,0.0586510229
2750,0.0488758516
2751,0.0488758516
2752,0.0488758516
2753,0.0488758516
2754,0.0586510229
2755,0.0586510229
2756,0.0684261989
2757,0.0879765415
2758,0.0977517032
2759,0.1075268864
2760,0.0879765415
2761,0.1075268864
2762,0.1075268864
2763,0.1075268864
2764,0.1270772218
2765,0.1466275596
2766,0.1270772218
2767,0.1466275596
2768,0.1368523955
2769,0.1270772218
2770,0.1270772218
2771,0.1075268864
2772,0.1270772218
2773,0.1466275596
2774,0.1368523955
2775,0.1368523955
2776,0.1466275596
2777,0.1564027309
2778,0.1661779165
2779,0.1955034160
2780,0.2639296054
2781,0.2541544437
2782,0.3030303001
2783,0.2834799575
2784,0.2737047910
2785,0.2639296054
2786,0.2443792819
2787,0.2346040964
2788,0.2248289346
2789,0.1955034160
2790,0.2052785873
2791,0.2052785873
2792,0.2346040964
2793,0.2248289346
2794,0.2052785873
2795,0.1955034160
2796,0.2248289346
2797,0.1955034160
2798,0.1955034160
2799,0.1955034160
2800,0.1759530782
2801,0.1759530782
2802,0.1661779165
2803,0.1661779165
2804,0.1661779165
2805,0.1466275596
2806,0.1466275596
2807,0.1466275596
2808,0.1466275596
2809,0.1368523955
2810,0.1368523955
2811,0.1173020482
2812,0.1270772218
2813,0.1270772218
2814,0.1466275596
2815,0.1564027309
2816,0.1466275596
2817,0.1368523955
2818,0.1466275596
2819,0.1466275596
2820,0.1368523955
2821,0.1564027309
2822,0.1466275596
2823,0.1270772218
2824,0.1368523955
2825,0.1368523955
2826,0.1466275596
2827,0.1368523955
2828,0.1270772218
2829,0.1270772218
2830,0.1075268864
2831,0.1075268864
2832,0.1075268864
2833,0.1075268864
2834,0.1173020482
2835,0.1173020482
2836,0.1270772218
2837,0.1270772218
2838,0.1173020482
2839,0.1173020482
2840,0.1466275596
2841,0.1368523955
2842,0.1270772218
2843,0.1368523955
2844,0.1368523955
2845,0.1270772218
2846,0.1270772218
2847,0.1173020482
2848,0.1075268864
2849,0.0977517032
2850,0.1075268864
2851,0.1075268864
2852,0.1075268864
2853,0.0977517032
2854,0.0879765415
2855,0.1075268864
2856,0.1075268864
2857,0.1075268864
2858,0.1075268864
2859,0.1270772218
2860,0.1173020482
2861,0.1173020482
2862,0.1173020482
2863,0.1173020482
2864,0.1075268864
2865,0.1368523955
2866,0.1759530782
2867,0.1759530782
2868,0.1759530782
2869,0.1857282543
2870,0.1661779165
2871,0.1661779165
2872,0.1564027309
2873,0.1564027309
2874,0.1564027309
2875,0.1368523955
2876,0.1368523955
2877,0.1173020482
2878,0.1270772218
2879,0.1368523955
2880,0.1270772218
2881,0.1075268864
2882,0.1075268864
2883,0.1075268864
2884,0.1075268864
2885,0.0879765415
2886,0.0879765415
2887,0.0782013654
2888,0.0782013654
2889,0.0684261989
2890,0.0879765415
2891,0.0782013654
2892,0.0684261989
2893,0.0684261989
2894,0.0684261989
2895,0.0586510229
2896,0.0684261989
2897,0.0586510229
2898,0.0586510229
2899,0.0684261989
2900,0.0782013654
2901,0.0879765415
2902,0.1075268864
2903,0.1368523955
2904,0.1466275596
2905,0.1368523955
2906,0.1466275596
2907,0.1368523955
2908,0.1270772218
2909,0.1270772218
2910,0.1466275596
2911,0.1564027309
2912,0.1759530782
2913,0.1857282543
2914,0.2150537729
2915,0.2346040964
2916,0.2248289346
2917,0.2248289346
2918,0.2346040964
2919,0.2150537729
2920,0.2541544437
2921,0.2737047910
2922,0.2834799575
2923,0.2834799575
2924,0.2737047910
2925,0.3225806236
2926,0.3421309947
2927,0.3323558330
2928,0.3421309947
2929,0.3421309947
2930,0.3421309947
2931,0.3030303001
2932,0.3225806236
2933,0.3323558330
2934,0.3225806236
2935,0.3323558330
2936,0.3030303001
2937,0.3225806236
2938,0.3030303001
2939,0.2932551193
2940,0.2834799575
2941,0.2932551193
2942,0.2639296054
2943,0.2834799575
2944,0.2443792819
2945,0.2248289346
2946,0.2248289346
2947,0.1955034160
2948,0.2150537729
2949,0.1955034160
2950,0.1857282543
2951,0.1661779165
2952,0.1564027309
2953,0.1564027309
2954,0.1466275596
2955,0.1466275596
2956,0.1466275596
2957,0.1368523955
2958,0.1368523955
2959,0.1270772218
2960,0.1466275596
2961,0.1368523955
2962,0.1270772218
2963,0.1368523955
2964,0.1173020482
2965,0.0977517032
2966,0.0977517032
2967,0.0977517032
2968,0.0782013654
2969,0.0879765415
2970,0.0879765415
2971,0.0879765415
2972,0.0782013654
2973,0.0879765415
2974,0.0879765415
2975,0.0879765415
2976,0.0782013654
2977,0.0782013654
2978,0.0879765415
2979,0.0879765415
2980,0.0782013654
2981,0.0782013654
2982,0.0782013654
2983,0.0782013654
2984,0.0977517032
2985,0.1173020482
2986,0.1173020482
2987,0.1368523955
2988,0.1270772218
2989,0.1075268864
2990,0.1075268864
2991,0.1075268864
2992,0.1075268864
2993,0.0977517032
2994,0.0879765415
2995,0.0782013654
2996,0.0782013654
2997,0.0782013654
2998,0.0782013654
2999,0.0684261989
3000,0.0684261989
3001,0.1857282543
3002,0.1661779165
3003,0.1466275596
3004,0.1270772218
3005,0.1270772218
3006,0.1270772218
3007,0.1173020482
3008,0.1466275596
3009,0.1270772218
3010,0.1270772218
3011,0.1173020482
3012,0.1075268864
3013,0.0977517032
3014,0.1075268864
3015,0.1075268864
3016,0.1075268864
3017,0.0977517032
3018,0.0879765415
3019,0.0879765415
3020,0.0782013654
3021,0.0879765415
3022,0.1075268864
3023,0.1075268864
3024,0.0977517032
3025,0.1173020482
3026,0.1173020482
3027,0.1075268864
3028,0.0977517032
3029,0.0977517032
3030,0.0977517032
3031,0.0977517032
3032,0.1075268864
3033,0.1173020482
3034,0.1270772218
3035,0.1368523955
3036,0.1759530782
3037,0.1661779165
3038,0.1661779165
3039,0.1759530782
3040,0.1759530782
3041,0.1661779165
3042,0.1661779165
3043,0.1955034160
3044,0.2248289346
3045,0.2052785873
3046,0.1857282543
3047,0.1857282543
3048,0.1759530782
3049,0.1661779165
3050,0.2150537729
3051,0.1955034160
3052,0.1857282543
3053,0.1661779165
3054,0.1857282543
3055,0.2150537729
3056,0.2150537729
3057,0.2737047910
3058,0.2443792819
3059,0.3128054618
3060,0.2737047910
3061,0.2834799575
3062,0.2639296054
3063,0.2639296054
3064,0.2443792819
3065,0.2443792819
3066,0.2639296054
3067,0.2737047910
3068,0.2737047910
3069,0.2639296054
3070,0.2443792819
3071,0.2346040964
3072,0.2052785873
3073,0.1955034160
3074,0.1955034160
3075,0.1955034160
3076,0.1955034160
3077,0.1661779165
3078,0.1564027309
3079,0.1661779165
3080,0.1466275596
3081,0.1466275596
3082,0.1466275596
3083,0.1661779165
3084,0.1759530782
3085,0.1661779165
3086,0.1661779165
3087,0.1564027309
3088,0.1759530782
3089,0.1759530782
3090,0.1564027309
3091,0.1466275596
3092,0.1466275596
3093,0.1368523955
3094,0.1368523955
3095,0.1368523955
3096,0.1368523955
3097,0.1270772218
3098,0.1075268864
3099,0.1368523955
3100,0.1173020482
3101,0.1270772218
3102,0.1270772218
3103,0.1173020482
3104,0.1173020482
3105,0.1173020482
3106,0.1075268864
3107,0.0977517032
3108,0.0977517032
3109,0.1270772218
3110,0.0977517032
3111,0.1075268864
3112,0.1075268864
3113,0.1173020482
3114,0.1270772218
3115,0.1270772218
3116,0.1173020482
3117,0.1075268864
3118,0.1075268864
3119,0.0977517032
3120,0.0879765415
3121,0.0879765415
3122,0.0879765415
3123,0.1075268864
3124,0.0977517032
3125,0.1173020482
3126,0.1075268864
3127,0.1075268864
3128,0.1466275596
3129,0.1270772218
3130,0.1173020482
3131,0.1173020482
3132,0.1466275596
3133,0.1368523955
3134,0.1368523955
3135,0.1173020482
3136,0.1270772218
3137,0.1270772218
3138,0.1368523955
3139,0.1270772218
3140,0.1270772218
3141,0.1270772218
3142,0.1173020482
3143,0.1075268864
3144,0.1075268864
3145,0.1075268864
3146,0.1075268864
3147,0.0977517032
3148,0.1075268864
3149,0.1270772218
3150,0.1270772218
3151,0.1173020482
3152,0.1173020482
3153,0.1173020482
3154,0.1466275596
3155,0.1368523955
3156,0.1173020482
3157,0.1075268864
3158,0.1173020482
3159,0.1270772218
3160,0.1368523955
3161,0.1368523955
3162,0.1270772218
3163,0.1270772218
3164,0.1466275596
3165,0.1270772218
3166,0.1173020482
3167,0.1173020482
3168,0.1270772218
3169,0.1270772218
3170,0.1270772218
3171,0.1270772218
3172,0.1466275596
3173,0.1564027309
3174,0.1661779165
3175,0.1564027309
3176,0.1564027309
3177,0.1857282543
3178,0.2150537729
3179,0.2248289346
3180,0.2248289346
3181,0.2150537729
3182,0.2150537729
3183,0.2052785873
3184,0.1857282543
3185,0.1857282543
3186,0.1857282543
3187,0.2052785873
3188,0.2052785873
3189,0.1955034160
3190,0.1955034160
3191,0.1857282543
3192,0.1955034160
3193,0.1857282543
3194,0.1857282543
3195,0.1955034160
3196,0.2346040964
3197,0.2346040964
3198,0.2639296054
3199,0.2639296054
3200,0.2541544437
3201,0.2346040964
3202,0.2834799575
3203,0.2737047910
3204,0.2443792819
3205,0.2443792819
3206,0.2443792819
3207,0.2541544437
3208,0.2443792819
3209,0.2443792819
3210,0.2346040964
3211,0.2639296054
3212,0.2541544437
3213,0.2639296054
3214,0.2639296054
3215,0.2443792819
3216,0.2541544437
3217,0.2443792819
3218,0.2248289346
3219,0.2443792819
3220,0.2248289346
3221,0.2052785873
3222,0.1955034160
3223,0.1759530782
3224,0.1661779165
3225,0.1661779165
3226,0.1661779165
3227,0.1564027309
3228,0.1759530782
3229,0.1661779165
3230,0.1661779165
3231,0.1661779165
3232,0.1661779165
3233,0.1466275596
3234,0.1661779165
3235,0.1661779165
3236,0.1661779165
3237,0.1564027309
3238,0.1466275596
3239,0.1466275596
3240,0.1466275596
3241,0.1466275596
3242,0.1368523955
3243,0.1270772218
3244,0.1368523955
3245,0.1173020482
3246,0.1173020482
3247,0.1173020482
3248,0.1173020482
3249,0.1270772218
3250,0.1270772218
3251,0.1270772218
3252,0.1270772218
3253,0.1466275596
3254,0.1368523955
3255,0.1368523955
3256,0.1173020482
3257,0.1173020482
3258,0.1173020482
3259,0.1075268864
3260,0.1075268864
3261,0.1075268864
3262,0.1173020482
3263,0.1075268864
3264,0.1173020482
3265,0.0977517032
3266,0.1075268864
3267,0.1075268864
3268,0.1075268864
3269,0.0977517032
3270,0.0977517032
3271,0.0977517032
3272,0.0977517032
3273,0.0977517032
3274,0.0879765415
3275,0.0977517032
3276,0.0977517032
3277,0.1075268864
3278,0.0977517032
3279,0.0977517032
3280,0.1173020482
3281,0.1075268864
3282,0.1270772218
3283,0.1173020482
3284,0.1173020482
3285,0.1173020482
3286,0.1173020482
3287,0.0977517032
3288,0.0977517032
3289,0.0977517032
3290,0.0879765415
3291,0.0977517032
3292,0.0977517032
3293,0.1075268864
3294,0.1075268864
3295,0.1173020482
3296,0.1368523955
3297,0.1173020482
3298,0.1270772218
3299,0.1173020482
3300,0.1075268864
3301,0.1075268864
3302,0.1075268864
3303,0.1075268864
3304,0.1075268864
3305,0.1270772218
3306,0.1075268864
3307,0.1270772218
3308,0.1075268864
3309,0.1173020482
3310,0.1270772218
3311,0.1270772218
3312,0.1368523955
3313,0.1368523955
3314,0.1466275596
3315,0.1564027309
3316,0.1661779165
3317,0.1564027309
3318,0.1661779165
3319,0.1661779165
3320,0.1661779165
3321,0.1759530782
3322,0.1857282543
3323,0.2150537729
3324,0.2052785873
3325,0.2052785873
3326,0.2052785873
3327,0.2052785873
3328,0.2150537729
3329,0.2248289346
3330,0.2150537729
3331,0.2150537729
3332,0.2443792819
3333,0.2443792819
3334,0.2443792819
3335,0.2248289346
3336,0.2541544437
3337,0.2834799575
3338,0.3421309947
3339,0.3030303001
3340,0.2834799575
3341,0.2737047910
3342,0.2541544437
3343,0.2541544437
3344,0.2639296054
3345,0.2346040964
3346,0.2346040964
3347,0.2443792819
3348,0.2150537729
3349,0.2639296054
3350,0.2541544437
3351,0.2443792819
3352,0.2639296054
3353,0.2639296054
3354,0.2737047910
3355,0.2443792819
3356,0.2248289346
3357,0.2346040964
3358,0.2639296054
3359,0.2639296054
3360,0.2541544437
3361,0.2443792819
3362,0.2248289346
3363,0.2150537729
3364,0.2052785873
3365,0.1857282543
3366,0.1857282543
3367,0.1759530782
3368,0.1661779165
3369,0.1564027309
3370,0.1564027309
3371,0.1466275596
3372,0.1466275596
3373,0.1857282543
3374,0.1661779165
3375,0.1466275596
3376,0.1661779165
3377,0.1564027309
3378,0.1661779165
3379,0.1661779165
3380,0.1564027309
3381,0.1661779165
3382,0.1466275596
3383,0.1368523955
3384,0.1368523955
3385,0.1270772218
3386,0.1173020482
3387,0.1270772218
3388,0.1173020482
3389,0.1270772218
3390,0.1466275596
3391,0.1368523955
3392,0.1368523955
3393,0.1466275596
3394,0.1564027309
3395,0.1564027309
3396,0.1564027309
3397,0.1564027309
3398,0.1368523955
3399,0.1466275596
3400,0.1368523955
3401,0.1368523955
3402,0.1173020482
3403,0.1173020482
3404,0.1270772218
3405,0.1173020482
3406,0.1075268864
3407,0.1466275596
3408,0.1368523955
3409,0.1270772218
3410,0.1466275596
3411,0.1368523955
3412,0.1270772218
3413,0.1368523955
3414,0.1270772218
3415,0.1368523955
3416,0.1270772218
3417,0.1270772218
3418,0.1270772218
3419,0.1270772218
3420,0.1466275596
3421,0.1466275596
3422,0.1368523955
3423,0.1466275596
3424,0.1270772218
3425,0.1466275596
3426,0.1466275596
3427,0.1270772218
3428,0.1270772218
3429,0.1173020482
3430,0.0977517032
3431,0.1173020482
3432,0.1173020482
3433,0.1075268864
3434,0.1270772218
3435,0.1173020482
3436,0.1075268864
3437,0.1173020482
3438,0.1270772218
3439,0.1173020482
3440,0.1075268864
3441,0.1075268864
3442,0.0977517032
3443,0.0977517032
3444,0.0977517032
3445,0.1075268864
3446,0.1075268864
3447,0.1075268864
3448,0.1075268864
3449,0.0977517032
3450,0.1075268864
3451,0.1075268864
3452,0.1075268864
3453,0.1270772218
3454,0.1368523955
3455,0.1466275596
3456,0.1564027309
3457,0.1466275596
3458,0.1759530782
3459,0.1759530782
3460,0.1564027309
3461,0.1857282543
3462,0.1857282543
3463,0.1955034160
3464,0.2150537729
3465,0.2346040964
3466,0.2248289346
3467,0.2150537729
3468,0.2052785873
3469,0.1857282543
3470,0.1955034160
3471,0.2150537729
3472,0.2248289346
3473,0.2052785873
3474,0.1955034160
3475,0.2052785873
3476,0.2150537729
3477,0.2052785873
3478,0.1955034160
3479,0.1955034160
3480,0.1955034160
3481,0.1955034160
3482,0.2052785873
3483,0.2150537729
3484,0.2248289346
3485,0.2541544437
3486,0.2639296054
3487,0.3128054618
3488,0.2737047910
3489,0.2834799575
3490,0.3030303001
3491,0.2932551193
3492,0.3421309947
3493,0.3421309947
3494,0.4398827075
3495,0.4105571746
3496,0.4105571746
3497,0.3910068321
3498,0.3714565038
3499,0.3812316703
3500,0.3323558330
3501,0.3128054618
3502,0.2834799575
3503,0.2639296054
3504,0.2541544437
3505,0.2248289346
3506,0.2639296054
3507,0.2639296054
3508,0.2443792819
3509,0.2150537729
3510,0.2052785873
3511,0.1857282543
3512,0.1857282543
3513,0.1857282543
3514,0.1857282543
3515,0.1759530782
3516,0.1759530782
3517,0.1955034160
3518,0.1759530782
3519,0.1759530782
3520,0.1661779165
3521,0.1564027309
3522,0.1466275596
3523,0.1564027309
3524,0.1759530782
3525,0.1661779165
3526,0.1564027309
3527,0.1857282543
3528,0.1857282543
3529,0.1857282543
3530,0.1759530782
3531,0.2052785873
3532,0.2346040964
3533,0.2443792819
3534,0.2541544437
3535,0.2248289346
3536,0.2248289346
3537,0.2150537729
3538,0.2052785873
3539,0.2150537729
3540,0.2150537729
3541,0.2052785873
3542,0.3225806236
3543,0.2932551193
3544,0.3421309947
3545,0.3812316703
3546,0.3812316703
3547,0.4105571746
3548,0.4105571746
3549,0.3714565038
3550,0.3128054618
3551,0.3128054618
3552,0.2737047910
3553,0.2639296054
3554,0.2346040964
3555,0.2150537729
3556,0.2052785873
3557,0.2150537729
3558,0.2052785873
3559,0.2248289346
3560,0.2052785873
3561,0.1955034160
3562,0.1857282543
3563,0.2248289346
3564,0.2541544437
3565,0.2541544437
3566,0.2737047910
3567,0.2443792819
3568,0.2150537729
3569,0.2150537729
3570,0.2150537729
3571,0.1857282543
3572,0.1759530782
3573,0.2052785873
3574,0.1857282543
3575,0.1857282543
3576,0.1759530782
3577,0.1564027309
3578,0.1564027309
3579,0.1466275596
3580,0.1368523955
3581,0.1173020482
3582,0.1173020482
3583,0.1368523955
3584,0.1466275596
3585,0.1661779165
3586,0.1661779165
3587,0.1759530782
3588,0.1564027309
3589,0.1759530782
3590,0.1661779165
3591,0.1759530782
3592,0.1661779165
3593,0.1955034160
3594,0.1955034160
3595,0.1857282543
3596,0.1661779165
3597,0.1564027309
3598,0.1661779165
3599,0.2150537729
3600,0.2052785873
3601,0.1759530782
3602,0.2150537729
3603,0.2150537729
3604,0.2541544437
3605,0.2639296054
3606,0.2346040964
3607,0.2346040964
3608,0.2346040964
3609,0.2443792819
3610,0.2639296054
3611,0.2737047910
3612,0.3128054618
3613,0.2834799575
3614,0.2834799575
3615,0.2932551193
3616,0.3030303001
3617,0.2834799575
3618,0.2541544437
3619,0.2639296054
3620,0.2639296054
3621,0.2541544437
3622,0.3128054618
3623,0.2932551193
3624,0.2932551193
3625,0.2834799575
3626,0.2346040964
3627,0.2248289346
3628,0.2639296054
3629,0.2443792819
3630,0.2248289346
3631,0.2248289346
3632,0.2052785873
3633,0.2052785873
3634,0.1857282543
3635,0.1857282543
3636,0.1857282543
3637,0.2248289346
3638,0.2052785873
3639,0.1955034160
3640,0.1955034160
3641,0.1955034160
3642,0.1759530782
3643,0.1759530782
3644,0.1564027309
3645,0.1759530782
3646,0.1661779165
3647,0.1661779165
3648,0.1564027309
3649,0.1466275596
3650,0.1564027309
3651,0.1466275596
3652,0.1466275596
3653,0.1661779165
3654,0.1466275596
3655,0.1368523955
3656,0.1661779165
3657,0.1564027309
3658,0.1368523955
3659,0.1270772218
3660,0.1368523955
3661,0.1368523955
3662,0.1759530782
3663,0.1466275596
3664,0.1466275596
3665,0.1368523955
3666,0.1368523955
3667,0.1270772218
3668,0.1270772218
3669,0.1466275596
3670,0.1466275596
3671,0.1368523955
3672,0.1368523955
3673,0.1368523955
3674,0.1661779165
3675,0.1466275596
3676,0.1368523955
3677,0.1368523955
3678,0.1368523955
3679,0.1270772218
3680,0.1466275596
3681,0.1368523955
3682,0.1270772218
3683,0.1270772218
3684,0.1270772218
3685,0.1270772218
3686,0.1075268864
3687,0.1173020482
3688,0.1075268864
3689,0.1075268864
3690,0.1173020482
3691,0.0977517032
3692,0.1075268864
3693,0.1173020482
3694,0.1173020482
3695,0.1270772218
3696,0.1173020482
3697,0.0977517032
3698,0.0977517032
3699,0.1173020482
3700,0.1075268864
3701,0.1075268864
3702,0.0977517032
3703,0.0977517032
3704,0.0879765415
3705,0.0879765415
3706,0.1075268864
3707,0.0977517032
3708,0.0879765415
3709,0.0782013654
3710,0.0782013654
3711,0.0879765415
3712,0.0879765415
3713,0.0977517032
3714,0.0879765415
3715,0.1075268864
3716,0.1075268864
3717,0.1075268864
3718,0.1075268864
3719,0.1075268864
3720,0.1075268864
3721,0.1075268864
3722,0.0977517032
3723,0.1075268864
3724,0.1075268864
3725,0.1173020482
3726,0.1368523955
3727,0.1270772218
3728,0.1368523955
3729,0.1857282543
3730,0.2150537729
3731,0.2346040964
3732,0.2639296054
3733,0.3225806236
3734,0.3030303001
3735,0.2541544437
3736,0.2737047910
3737,0.2346040964
3738,0.2639296054
3739,0.2639296054
3740,0.2737047910
3741,0.2541544437
3742,0.2541544437
3743,0.2639296054
3744,0.2737047910
3745,0.3128054618
3746,0.3225806236
3747,0.3030303001
3748,0.3030303001
3749,0.3323558330
3750,0.3421309947
3751,0.3421309947
3752,0.3519061565
3753,0.3812316703
3754,0.3519061565
3755,0.3421309947
3756,0.3225806236
3757,0.3323558330
3758,0.3128054618
3759,0.3323558330
3760,0.3323558330
3761,0.3421309947
3762,0.3616813421
3763,0.4203323364
3764,0.3910068321
3765,0.3812316703
3766,0.3910068321
3767,0.3421309947
3768,0.3812316703
3769,0.3421309947
3770,0.3225806236
3771,0.3030303001
3772,0.3225806236
3773,0.3225806236
3774,0.3225806236
3775,0.2737047910
3776,0.3128054618
3777,0.2932551193
3778,0.2639296054
3779,0.2443792819
3780,0.2248289346
3781,0.2150537729
3782,0.2443792819
3783,0.2541544437
3784,0.2248289346
3785,0.2248289346
3786,0.1955034160
3787,0.1857282543
3788,0.1857282543
3789,0.1759530782
3790,0.1857282543
3791,0.1759530782
3792,0.1955034160
3793,0.1857282543
3794,0.1955034160
3795,0.2150537729
3796,0.1857282543
3797,0.1857282543
3798,0.1955034160
3799,0.1857282543
3800,0.1564027309
3801,0.1564027309
3802,0.1759530782
3803,0.1564027309
3804,0.1564027309
3805,0.1564027309
3806,0.1759530782
3807,0.1955034160
3808,0.1857282543
3809,0.1564027309
3810,0.1759530782
3811,0.1466275596
3812,0.1368523955
3813,0.1564027309
3814,0.1466275596
3815,0.1173020482
3816,0.1466275596
3817,0.1368523955
3818,0.1270772218
3819,0.1270772218
3820,0.1564027309
3821,0.1661779165
3822,0.1564027309
3823,0.1466275596
3824,0.1466275596
3825,0.1466275596
3826,0.1368523955
3827,0.1173020482
3828,0.1173020482
3829,0.1173020482
3830,0.1270772218
3831,0.1173020482
3832,0.1173020482
3833,0.3812316703
3834,0.3225806236
3835,0.2834799575
3836,0.2443792819
3837,0.2150537729
3838,0.1857282543
3839,0.1661779165
3840,0.1466275596
3841,0.1173020482
3842,0.1075268864
3843,0.0977517032
3844,0.0879765415
3845,0.0879765415
3846,0.0879765415
3847,0.0977517032
3848,0.1075268864
3849,0.0879765415
3850,0.1075268864
3851,0.1075268864
3852,0.1173020482
3853,0.1173020482
3854,0.0977517032
3855,0.1075268864
3856,0.1173020482
3857,0.1173020482
3858,0.1075268864
3859,0.0977517032
3860,0.0782013654
3861,0.0782013654
3862,0.0684261989
3863,0.0782013654
3864,0.0782013654
3865,0.0782013654
3866,0.0684261989
3867,0.0782013654
3868,0.0782013654
3869,0.0684261989
3870,0.0782013654
3871,0.0782013654
3872,0.0879765415
3873,0.0977517032
3874,0.0879765415
3875,0.0977517032
3876,0.1173020482
3877,0.1661779165
3878,0.4985337257
3879,0.4398827075
3880,0.3812316703
3881,0.3323558330
3882,0.2932551193
3883,0.2737047910
3884,0.2541544437
3885,0.2248289346
3886,0.2150537729
3887,0.2150537729
3888,0.2346040964
3889,0.2346040964
3890,0.2150537729
3891,0.2052785873
3892,0.2150537729
3893,0.2052785873
3894,0.2150537729
3895,0.2443792819
3896,0.2639296054
3897,0.2932551193
3898,0.3812316703
3899,0.4789833545
3900,0.4496578693
3901,0.4105571746
3902,0.3812316703
3903,0.3714565038
3904,0.3519061565
3905,0.3421309947
3906,0.3421309947
3907,0.3421309947
3908,0.3519061565
3909,0.3421309947
3910,0.3323558330
3911,0.3323558330
3912,0.2932551193
3913,0.2834799575
3914,0.2834799575
3915,0.2737047910
3916,0.2639296054
3917,0.2834799575
3918,0.2639296054
3919,0.2541544437
3920,0.2541544437
3921,0.2443792819
3922,0.2150537729
3923,0.2052785873
3924,0.2346040964
3925,0.2248289346
3926,0.2052785873
3927,0.1857282543
3928,0.1661779165
3929,0.1466275596
3930,0.1564027309
3931,0.1564027309
3932,0.1270772218
3933,0.1368523955
3934,0.1368523955
3935,0.1368523955
3936,0.1466275596
3937,0.1368523955
3938,0.1466275596
3939,0.1368523955
3940,0.1270772218
3941,0.1173020482
3942,0.1270772218
3943,0.1270772218
3944,0.1466275596
3945,0.1661779165
3946,0.1759530782
3947,0.1661779165
3948,0.1466275596
3949,0.1466275596
3950,0.1270772218
3951,0.1270772218
3952,0.1173020482
3953,0.1173020482
3954,0.1075268864
3955,0.1075268864
3956,0.1173020482
3957,0.1270772218
3958,0.1661779165
3959,0.1564027309
3960,0.1466275596
3961,0.1270772218
3962,0.1466275596
3963,0.1270772218
3964,0.1173020482
3965,0.1270772218
3966,0.1173020482
3967,0.1368523955
3968,0.1368523955
3969,0.1368523955
3970,0.1564027309
3971,0.1857282543
3972,0.1661779165
3973,0.1466275596
3974,0.1466275596
3975,0.1368523955
3976,0.1368523955
3977,0.1270772218
3978,0.1564027309
3979,0.1564027309
3980,0.1466275596
3981,0.1759530782
3982,0.2150537729
3983,0.2150537729
3984,0.2443792819
3985,0.2834799575
3986,0.2932551193
3987,0.3128054618
3988,0.3030303001
3989,0.2932551193
3990,0.3225806236
3991,0.2737047910
3992,0.2834799575
3993,0.2541544437
3994,0.2248289346
3995,0.2150537729
3996,0.2248289346
3997,0.2052785873
3998,0.2150537729
3999,0.2052785873
0,0.2443792819
1,0.6451612472
2,0.5376344203
3,0.4496578693
4,0.3616813421
5,0.3030303001
6,0.2443792819
7,0.1955034160
8,0.1661779165
9,0.1368523955
10,0.1173020482
11,0.0977517032
12,0.0782013654
13,0.0586510229
14,0.0488758516
15,0.0391006832
16,0.0391006832
17,0.0293255119
18,0.0293255119
19,0.0293255119
20,0.0293255119
21,0.0293255119
22,0.0195503416
23,0.0293255119
24,0.0293255119
25,0.0391006832
26,0.0488758516
27,0.0586510229
28,0.0586510229
29,0.0879765415
30,0.0977517032
31,0.0879765415
32,0.0977517032
33,0.0879765415
34,0.1173020482
35,0.1270772218
36,0.1173020482
37,0.1075268864
38,0.1173020482
39,0.1368523955
40,0.1466275596
41,0.1466275596
42,0.1661779165
43,0.1564027309
44,0.1564027309
45,0.1661779165
46,0.1564027309
47,0.1466275596
48,0.1466275596
49,0.1759530782
50,0.1955034160
51,0.1955034160
52,0.1857282543
53,0.1759530782
54,0.2150537729
55,0.2150537729
56,0.2346040964
57,0.2150537729
58,0.2346040964
59,0.2150537729
60,0.1955034160
61,0.1857282543
62,0.1759530782
63,0.1759530782
64,0.1857282543
65,0.1955034160
66,0.1955034160
67,0.1759530782
68,0.1955034160
69,0.2052785873
70,0.1955034160
71,0.1661779165
72,0.1564027309
73,0.1564027309
74,0.1368523955
75,0.1270772218
76,0.1270772218
77,0.1173020482
78,0.1075268864
79,0.1075268864
80,0.0977517032
81,0.0879765415
82,0.0782013654
83,0.0879765415
84,0.0879765415
85,0.0879765415
86,0.0782013654
87,0.0782013654
88,0.0684261989
89,0.0782013654
90,0.0684261989
91,0.0782013654
92,0.0684261989
93,0.0684261989
94,0.0586510229
95,0.0586510229
96,0.0684261989
97,0.0586510229
98,0.0586510229
99,0.0586510229
100,0.0488758516
101,0.0586510229
102,0.0586510229
103,0.0586510229
104,0.0488758516
105,0.0488758516
106,0.0586510229
107,0.0488758516
108,0.0488758516
109,0.0488758516
110,0.0586510229
111,0.0488758516
112,0.0391006832
113,0.0391006832
114,0.0391006832
115,0.0488758516
116,0.0488758516
117,0.0488758516
118,0.0488758516
119,0.0391006832
120,0.0391006832
121,0.0293255119
122,0.0293255119
123,0.0293255119
124,0.0293255119
125,0.0195503416
126,0.0195503416
127,0.0097751703
128,0.0293255119
129,0.0293255119
130,0.0293255119
131,0.0195503416
132,0.0195503416
133,0.0097751703
134,0.0195503416
135,0.0195503416
136,0.0195503416
137,0.0097751703
138,0.0195503416
139,0.0195503416
140,0.0195503416
141,0.0293255119
142,0.0391006832
143,0.0684261989
144,0.0782013654
145,0.0977517032
146,0.1075268864
147,0.0977517032
148,0.1075268864
149,0.0977517032
150,0.0879765415
151,0.0879765415
152,0.0782013654
153,0.0684261989
154,0.0684261989
155,0.0488758516
156,0.0586510229
157,0.0488758516
158,0.0586510229
159,0.0586510229
160,0.0977517032
161,0.0782013654
162,0.0782013654
163,0.0684261989
164,0.0684261989
165,0.0684261989
166,0.0684261989
167,0.0586510229
168,0.0488758516
169,0.0488758516
170,0.0391006832
171,0.0293255119
172,0.0293255119
173,0.0293255119
174,0.0293255119
175,0.0195503416
176,0.0195503416
177,0.0195503416
178,0.0293255119
179,0.0293255119
180,0.0293255119
181,0.0195503416
182,0.0195503416
183,0.0097751703
184,0.0000000000
185,0.0000000000
186,0.0097751703
187,0.0000000000
188,0.0000000000
189,0.0000000000
190,0.0000000000
191,0.0097751703
192,0.0097751703
193,0.0097751703
194,0.0000000000
195,0.0000000000
196,0.0000000000
197,0.0097751703
198,0.0097751703
199,0.0097751703
200,0.0195503416
201,0.0391006832
202,0.0391006832
203,0.0391006832
204,0.0391006832
205,0.0586510229
206,0.0684261989
207,0.0879765415
208,0.0879765415
209,0.0879765415
210,0.0879765415
211,0.0879765415
212,0.0977517032
213,0.1173020482
214,0.1466275596
215,0.1564027309
216,0.1466275596
217,0.1466275596
218,0.1270772218
219,0.1368523955
220,0.1368523955
221,0.1368523955
222,0.1857282543
223,0.1759530782
224,0.1661779165
225,0.1955034160
226,0.2150537729
227,0.2248289346
228,0.1955034160
229,0.1857282543
230,0.1955034160
231,0.2150537729
232,0.2150537729
233,0.1955034160
234,0.1955034160
235,0.2150537729
236,0.1857282543
237,0.1857282543
238,0.1857282543
239,0.1759530782
240,0.1564027309
241,0.1564027309
242,0.1466275596
243,0.1270772218
244,0.1075268864
245,0.1075268864
246,0.1075268864
247,0.0879765415
248,0.0782013654
249,0.0684261989
250,0.0684261989
251,0.0586510229
252,0.0684261989
253,0.0977517032
254,0.0782013654
255,0.0684261989
256,0.0586510229
257,0.0586510229
258,0.0488758516
259,0.0391006832
260,0.0391006832
261,0.0391006832
262,0.0293255119
263,0.0293255119
264,0.0293255119
265,0.0293255119
266,0.0195503416
267,0.0195503416
268,0.0293255119
269,0.0195503416
270,0.0293255119
271,0.0391006832
272,0.0488758516
273,0.0391006832
274,0.0293255119
275,0.0391006832
276,0.0293255119
277,0.0293255119
278,0.0293255119
279,0.0293255119
280,0.0293255119
281,0.0293255119
282,0.0293255119
283,0.0293255119
284,0.0293255119
285,0.0293255119
286,0.0293255119
287,0.0195503416
288,0.0097751703
289,0.0195503416
290,0.0195503416
291,0.0195503416
292,0.0097751703
293,0.0097751703
294,0.0097751703
295,0.0097751703
296,0.0097751703
297,0.0097751703
298,0.0097751703
299,0.0097751703
300,0.0097751703
301,0.0097751703
302,0.0097751703
303,0.0097751703
304,0.0097751703
305,0.0097751703
306,0.0097751703
307,0.0097751703
308,0.0097751703
309,0.0097751703
310,0.0195503416
311,0.0195503416
312,0.0293255119
313,0.0293255119
314,0.0391006832
315,0.0488758516
316,0.0488758516
317,0.0488758516
318,0.0586510229
319,0.0782013654
320,0.0782013654
321,0.0684261989
322,0.0586510229
323,0.0488758516
324,0.0391006832
325,0.0488758516
326,0.0391006832
327,0.0293255119
328,0.0293255119
329,0.0195503416
330,0.0293255119
331,0.0293255119
332,0.0195503416
333,0.0195503416
334,0.0195503416
335,0.0195503416
336,0.0293255119
337,0.0293255119
338,0.0195503416
339,0.0097751703
340,0.0097751703
341,0.0097751703
342,0.0195503416
343,0.0293255119
344,0.0195503416
345,0.0195503416
346,0.0391006832
347,0.0488758516
348,0.0391006832
349,0.0684261989
350,0.0586510229
351,0.0684261989
352,0.0879765415
353,0.0782013654
354,0.0879765415
355,0.0977517032
356,0.0977517032
357,0.0879765415
358,0.0879765415
359,0.1173020482
360,0.1466275596
361,0.2052785873
362,0.2248289346
363,0.2248289346
364,0.2248289346
365,0.2052785873
366,0.2052785873
367,0.2541544437
368,0.2443792819
369,0.2443792819
370,0.2150537729
371,0.2150537729
372,0.2443792819
373,0.2346040964
374,0.2346040964
375,0.2346040964
376,0.2052785873
377,0.2248289346
378,0.2443792819
379,0.2248289346
380,0.2052785873
381,0.1955034160
382,0.1759530782
383,0.1955034160
384,0.1955034160
385,0.2052785873
386,0.1857282543
387,0.1857282543
388,0.1759530782
389,0.1564027309
390,0.1466275596
391,0.1564027309
392,0.1466275596
393,0.1368523955
394,0.1075268864
395,0.0977517032
396,0.0879765415
397,0.0977517032
398,0.1075268864
399,0.0977517032
400,0.1075268864
401,0.1075268864
402,0.1075268864
403,0.0977517032
404,0.0782013654
405,0.0782013654
406,0.0684261989
407,0.0586510229
408,0.0488758516
409,0.0488758516
410,0.0586510229
411,0.0684261989
412,0.0684261989
413,0.0684261989
414,0.0684261989
415,0.0782013654
416,0.0684261989
417,0.0684261989
418,0.0684261989
419,0.0782013654
420,0.0684261989
421,0.0586510229
422,0.0586510229
423,0.0586510229
424,0.0488758516
425,0.0488758516
426,0.0488758516
427,0.0488758516
428,0.0391006832
429,0.0391006832
430,0.0391006832
431,0.0488758516
432,0.0488758516
433,0.0488758516
434,0.0488758516
435,0.0391006832
436,0.0488758516
437,0.0488758516
438,0.0000000000
439,0.0000000000
440,0.0000000000
441,0.0097751703
442,0.0000000000
443,0.0195503416
444,0.0195503416
445,0.0000000000
446,0.0097751703
447,0.0195503416
448,0.0195503416
449,0.0097751703
450,0.0097751703
451,0.0097751703
452,0.0000000000
453,0.0000000000
454,0.0000000000
455,0.0000000000
456,0.0097751703
457,0.0000000000
458,0.0097751703
459,0.0097751703
460,0.0097751703
461,0.0000000000
462,0.0097751703
463,0.0097751703
464,0.0097751703
465,0.0000000000
466,0.0195503416
467,0.0195503416
468,0.0000000000
469,0.0195503416
470,0.0000000000
471,0.0000000000
472,0.0000000000
473,0.0000000000
474,0.0000000000
475,0.0000000000
476,0.0000000000
477,0.0000000000
478,0.0000000000
479,0.0000000000
480,0.0000000000
481,0.0000000000
482,0.0000000000
483,0.0000000000
484,0.0000000000
485,0.0000000000
486,0.0097751703
487,0.0097751703
488,0.0097751703
489,0.0097751703
490,0.0195503416
491,0.0195503416
492,0.0195503416
493,0.0195503416
494,0.0195503416
495,0.0195503416
496,0.0195503416
497,0.0195503416
498,0.0293255119
499,0.0195503416
500,0.0195503416
501,0.0293255119
502,0.0293255119
503,0.0195503416
504,0.0195503416
505,0.0293255119
506,0.0391006832
507,0.0488758516
508,0.0684261989
509,0.0684261989
510,0.1075268864
511,0.0879765415
512,0.1075268864
513,0.1564027309
514,0.1955034160
515,0.2834799575
516,0.2834799575
517,0.3421309947
518,0.3421309947
519,0.3519061565
520,0.3323558330
521,0.3225806236
522,0.3323558330
523,0.3421309947
524,0.3128054618
525,0.3030303001
526,0.3421309947
527,0.3128054618
528,0.2834799575
529,0.3323558330
530,0.3225806236
531,0.3128054618
532,0.3421309947
533,0.3421309947
534,0.3519061565
535,0.3421309947
536,0.3519061565
537,0.3128054618
538,0.3128054618
539,0.2932551193
540,0.2737047910
541,0.2541544437
542,0.2248289346
543,0.1955034160
544,0.2052785873
545,0.2052785873
546,0.1857282543
547,0.2248289346
548,0.2150537729
549,0.2346040964
550,0.2248289346
551,0.2052785873
552,0.2052785873
553,0.1955034160
554,0.1857282543
555,0.1564027309
556,0.1564027309
557,0.1368523955
558,0.1368523955
559,0.1270772218
560,0.1075268864
561,0.1075268864
562,0.1075268864
563,0.0977517032
564,0.0782013654
565,0.0879765415
566,0.0879765415
567,0.0879765415
568,0.0879765415
569,0.0782013654
570,0.0977517032
571,0.0879765415
572,0.0879765415
573,0.0782013654
574,0.0782013654
575,0.0684261989
576,0.0684261989
577,0.0684261989
578,0.0684261989
579,0.0782013654
580,0.0782013654
581,0.0782013654
582,0.0684261989
583,0.0684261989
584,0.0684261989
585,0.0977517032
586,0.0879765415
587,0.0879765415
588,0.0879765415
589,0.0879765415
590,0.0879765415
591,0.0879765415
592,0.0879765415
593,0.0879765415
594,0.0879765415
595,0.0879765415
596,0.0977517032
597,0.0977517032
598,0.0879765415
599,0.0782013654
600,0.0879765415
601,0.0879765415
602,0.0782013654
603,0.0782013654
604,0.0879765415
605,0.0782013654
606,0.0782013654
607,0.0684261989
608,0.0684261989
609,0.0586510229
610,0.0586510229
611,0.0488758516
612,0.0488758516
613,0.0586510229
614,0.0586510229
615,0.0684261989
616,0.0586510229
617,0.0586510229
618,0.0586510229
619,0.0488758516
620,0.0488758516
621,0.0488758516
622,0.0488758516
623,0.0586510229
624,0.0782013654
625,0.0782013654
626,0.1075268864
627,0.0977517032
628,0.0977517032
629,0.0782013654
630,0.0684261989
631,0.0684261989
632,0.0684261989
633,0.0488758516
634,0.0391006832
635,0.0488758516
636,0.0586510229
637,0.0684261989
638,0.0879765415
639,0.0684261989
640,0.0684261989
641,0.0586510229
642,0.0586510229
643,0.0586510229
644,0.0293255119
645,0.0586510229
646,0.0586510229
647,0.0684261989
648,0.0586510229
649,0.0879765415
650,0.1173020482
651,0.1173020482
652,0.1075268864
653,0.1075268864
654,0.1075268864
655,0.1075268864
656,0.0977517032
657,0.0879765415
658,0.0879765415
659,0.0782013654
660,0.0586510229
661,0.0684261989
662,0.0586510229
663,0.0586510229
664,0.0488758516
665,0.0488758516
666,0.0488758516
667,0.0488758516
668,0.0391006832
669,0.0391006832
670,0.0391006832
671,0.0391006832
672,0.0293255119
673,0.0293255119
674,0.0293255119
675,0.0000000000
676,0.0293255119
677,0.0391006832
678,0.0684261989
679,0.1075268864
680,0.0977517032
681,0.0879765415
682,0.0684261989
683,0.0684261989
684,0.0684261989
685,0.0586510229
686,0.0488758516
687,0.0586510229
688,0.0684261989
689,0.0684261989
690,0.0782013654
691,0.0879765415
692,0.0977517032
693,0.0977517032
694,0.1075268864
695,0.1075268864
696,0.1075268864
697,0.1270772218
698,0.1270772218
699,0.1368523955
700,0.1368523955
701,0.1368523955
702,0.1270772218
703,0.1368523955
704,0.1368523955
705,0.1368523955
706,0.1270772218
707,0.1173020482
708,0.1368523955
709,0.1564027309
710,0.1075268864
711,0.1466275596
712,0.1759530782
713,0.1661779165
714,0.0879765415
715,0.1564027309
716,0.1661779165
717,0.1564027309
718,0.1270772218
719,0.1564027309
720,0.1564027309
721,0.1661779165
722,0.1564027309
723,0.1759530782
724,0.1661779165
725,0.1466275596
726,0.1368523955
727,0.1466275596
728,0.1270772218
729,0.1173020482
730,0.1075268864
731,0.0977517032
732,0.1075268864
733,0.1075268864
734,0.0977517032
735,0.0977517032
736,0.0879765415
737,0.0782013654
738,0.0684261989
739,0.0684261989
740,0.0684261989
741,0.0684261989
742,0.0586510229
743,0.0586510229
744,0.0586510229
745,0.0586510229
746,0.0684261989
747,0.0684261989
748,0.0586510229
749,0.0586510229
750,0.0586510229
751,0.0684261989
752,0.0684261989
753,0.0586510229
754,0.0684261989
755,0.0586510229
756,0.0684261989
757,0.0684261989
758,0.0684261989
759,0.0782013654
760,0.0684261989
761,0.0782013654
762,0.0684261989
763,0.0684261989
764,0.0684261989
765,0.0879765415
766,0.0782013654
767,0.0782013654
768,0.0684261989
769,0.0586510229
770,0.0586510229
771,0.0586510229
772,0.0586510229
773,0.0879765415
774,0.0879765415
775,0.0684261989
776,0.0684261989
777,0.0684261989
778,0.0684261989
779,0.0586510229
780,0.0684261989
781,0.0684261989
782,0.0879765415
783,0.1075268864
784,0.1270772218
785,0.1173020482
786,0.1368523955
787,0.1270772218
788,0.1270772218
789,0.1173020482
790,0.1075268864
791,0.0977517032
792,0.0879765415
793,0.0782013654
794,0.0586510229
795,0.0684261989
796,0.0488758516
797,0.0684261989
798,0.0684261989
799,0.0586510229
800,0.0488758516
801,0.0586510229
802,0.0391006832
803,0.0293255119
804,0.0000000000
805,0.0488758516
806,0.0488758516
807,0.0488758516
808,0.0097751703
809,0.0488758516
810,0.0391006832
811,0.0293255119
812,0.0293255119
813,0.0195503416
814,0.0293255119
815,0.0195503416
816,0.0097751703
817,0.0097751703
818,0.0097751703
819,0.0000000000
820,0.0097751703
821,0.0097751703
822,0.0000000000
823,0.0000000000
824,0.0097751703
825,0.0000000000
826,0.0000000000
827,0.0000000000
828,0.0000000000
829,0.0000000000
830,0.0000000000
831,0.0000000000
832,0.0000000000
833,0.0000000000
834,0.0000000000
835,0.0000000000
836,0.0000000000
837,0.0000000000
838,0.0000000000
839,0.0000000000
840,0.0000000000
841,0.0000000000
842,0.0000000000
843,0.0000000000
844,0.0000000000
845,0.0000000000
846,0.0000000000
847,0.0000000000
848,0.0000000000
849,0.0000000000
850,0.0000000000
851,0.0000000000
852,0.0000000000
853,0.0000000000
854,0.0000000000
855,0.0000000000
856,0.0000000000
857,0.0000000000
858,0.0000000000
859,0.0000000000
860,0.0000000000
861,0.0097751703
862,0.0097751703
863,0.0293255119
864,0.0488758516
865,0.0684261989
866,0.0684261989
867,0.0684261989
868,0.0782013654
869,0.0782013654
870,0.0977517032
871,0.0977517032
872,0.0977517032
873,0.0879765415
874,0.1270772218
875,0.1173020482
876,0.1270772218
877,0.1075268864
878,0.1270772218
879,0.1466275596
880,0.1466275596
881,0.1564027309
882,0.2150537729
883,0.2248289346
884,0.2541544437
885,0.2541544437
886,0.2443792819
887,0.2443792819
888,0.2541544437
889,0.2541544437
890,0.2639296054
891,0.2541544437
892,0.2443792819
893,0.2346040964
894,0.2052785873
895,0.2052785873
896,0.2248289346
897,0.2346040964
898,0.2443792819
899,0.2443792819
900,0.2443792819
901,0.2248289346
902,0.3323558330
903,0.3421309947
904,0.3128054618
905,0.2834799575
906,0.2639296054
907,0.2346040964
908,0.2248289346
909,0.2248289346
910,0.2052785873
911,0.1857282543
912,0.1564027309
913,0.1368523955
914,0.1270772218
915,0.1173020482
916,0.1075268864
917,0.0977517032
918,0.1075268864
919,0.0977517032
920,0.0879765415
921,0.0977517032
922,0.0879765415
923,0.0879765415
924,0.0782013654
925,0.0782013654
926,0.0782013654
927,0.0782013654
928,0.0977517032
929,0.0879765415
930,0.0782013654
931,0.0684261989
932,0.0684261989
933,0.0586510229
934,0.0586510229
935,0.0586510229
936,0.0586510229
937,0.0488758516
938,0.0488758516
939,0.0586510229
940,0.0586510229
941,0.0586510229
942,0.0586510229
943,0.0586510229
944,0.0586510229
945,0.0488758516
946,0.0488758516
947,0.0586510229
948,0.0488758516
949,0.0684261989
950,0.0586510229
951,0.0488758516
952,0.0586510229
953,0.0488758516
954,0.0488758516
955,0.0488758516
956,0.0488758516
957,0.0488758516
958,0.0391006832
959,0.0391006832
960,0.0391006832
961,0.0293255119
962,0.0488758516
963,0.0391006832
964,0.0293255119
965,0.0293255119
966,0.0293255119
967,0.0293255119
968,0.0293255119
969,0.0195503416
970,0.0195503416
971,0.0195503416
972,0.0195503416
973,0.0195503416
974,0.0195503416
975,0.0293255119
976,0.0293255119
977,0.0293255119
978,0.0293255119
979,0.0293255119
980,0.0488758516
981,0.0488758516
982,0.0391006832
983,0.0097751703
984,0.0293255119
985,0.0391006832
986,0.0293255119
987,0.0293255119
988,0.0293255119
989,0.0293255119
990,0.0293255119
991,0.0293255119
992,0.0195503416
993,0.0293255119
994,0.0195503416
995,0.0195503416
996,0.0195503416
997,0.0195503416
998,0.0097751703
999,0.0097751703
1000,0.0097751703
1001,0.2150537729
1002,0.1759530782
1003,0.1466275596
1004,0.1173020482
1005,0.0977517032
1006,0.0782013654
1007,0.0586510229
1008,0.0488758516
1009,0.0391006832
1010,0.0293255119
1011,0.0293255119
1012,0.0195503416
1013,0.0195503416
1014,0.0195503416
1015,0.0195503416
1016,0.0195503416
1017,0.0097751703
1018,0.0097751703
1019,0.0097751703
1020,0.0097751703
1021,0.0000000000
1022,0.0097751703
1023,0.0097751703
1024,0.0097751703
1025,0.0097751703
1026,0.0097751703
1027,0.0097751703
1028,0.0000000000
1029,0.0000000000
1030,0.0000000000
1031,0.0000000000
1032,0.0097751703
1033,0.0097751703
1034,0.0097751703
1035,0.0097751703
1036,0.0097751703
1037,0.0195503416
1038,0.0195503416
1039,0.0293255119
1040,0.0488758516
1041,0.0684261989
1042,0.1075268864
1043,0.2150537729
1044,0.3030303001
1045,0.3030303001
1046,0.2932551193
1047,0.3421309947
1048,0.4007820129
1049,0.3714565038
1050,0.3128054618
1051,0.2932551193
1052,0.2932551193
1053,0.3128054618
1054,0.3030303001
1055,0.3030303001
1056,0.2737047910
1057,0.2932551193
1058,0.3421309947
1059,0.3030303001
1060,0.2834799575
1061,0.2737047910
1062,0.2541544437
1063,0.2346040964
1064,0.2248289346
1065,0.2248289346
1066,0.2052785873
1067,0.1857282543
1068,0.1759530782
1069,0.1759530782
1070,0.1759530782
1071,0.1759530782
1072,0.1564027309
1073,0.1368523955
1074,0.1368523955
1075,0.1368523955
1076,0.1173020482
1077,0.1075268864
1078,0.1075268864
1079,0.1075268864
1080,0.0977517032
1081,0.0977517032
1082,0.0782013654
1083,0.0782013654
1084,0.0684261989
1085,0.0782013654
1086,0.0782013654
1087,0.0782013654
1088,0.0684261989
1089,0.0684261989
1090,0.0586510229
1091,0.0586510229
1092,0.0586510229
1093,0.0488758516
1094,0.0488758516
1095,0.0488758516
1096,0.0586510229
1097,0.0586510229
1098,0.0586510229
1099,0.0586510229
1100,0.0488758516
1101,0.0586510229
1102,0.0488758516
1103,0.0488758516
1104,0.0586510229
1105,0.0586510229
1106,0.0586510229
1107,0.0684261989
1108,0.0782013654
1109,0.0879765415
1110,0.1075268864
1111,0.1075268864
1112,0.1270772218
1113,0.1173020482
1114,0.0977517032
1115,0.0879765415
1116,0.0782013654
1117,0.0782013654
1118,0.0782013654
1119,0.0684261989
1120,0.0684261989
1121,0.0684261989
1122,0.0684261989
1123,0.0586510229
1124,0.0488758516
1125,0.0586510229
1126,0.0488758516
1127,0.0488758516
1128,0.0586510229
1129,0.0488758516
1130,0.0488758516
1131,0.0684261989
1132,0.0879765415
1133,0.1075268864
1134,0.0879765415
1135,0.0977517032
1136,0.0782013654
1137,0.0586510229
1138,0.0488758516
1139,0.0391006832
1140,0.0391006832
1141,0.0391006832
1142,0.0293255119
1143,0.0195503416
1144,0.0195503416
1145,0.0195503416
1146,0.0195503416
1147,0.0195503416
1148,0.0097751703
1149,0.0195503416
1150,0.0195503416
1151,0.0293255119
1152,0.0293255119
1153,0.0195503416
1154,0.0195503416
1155,0.0293255119
1156,0.0293255119
1157,0.0293255119
1158,0.0293255119
1159,0.0293255119
1160,0.0293255119
1161,0.0391006832
1162,0.0488758516
1163,0.0488758516
1164,0.0391006832
1165,0.0293255119
1166,0.0293255119
1167,0.0293255119
1168,0.0195503416
1169,0.0293255119
1170,0.0195503416
1171,0.0195503416
1172,0.0293255119
1173,0.0293255119
1174,0.0293255119
1175,0.0391006832
1176,0.0391006832
1177,0.0488758516
1178,0.0684261989
1179,0.0782013654
1180,0.0879765415
1181,0.0977517032
1182,0.0977517032
1183,0.1075268864
1184,0.1075268864
1185,0.1270772218
1186,0.1368523955
1187,0.1368523955
1188,0.1466275596
1189,0.1466275596
1190,0.1857282543
1191,0.1955034160
1192,0.1955034160
1193,0.2346040964
1194,0.2541544437
1195,0.2932551193
1196,0.3225806236
1197,0.3128054618
1198,0.2932551193
1199,0.2834799575
1200,0.2541544437
1201,0.2639296054
1202,0.2443792819
1203,0.2150537729
1204,0.2639296054
1205,0.2346040964
1206,0.2150537729
1207,0.2248289346
1208,0.2248289346
1209,0.2150537729
1210,0.2150537729
1211,0.2052785873
1212,0.1857282543
1213,0.1857282543
1214,0.1661779165
1215,0.1564027309
1216,0.1368523955
1217,0.1368523955
1218,0.1270772218
1219,0.1466275596
1220,0.1270772218
1221,0.0977517032
1222,0.0977517032
1223,0.0879765415
1224,0.0782013654
1225,0.0879765415
1226,0.0879765415
1227,0.1173020482
1228,0.1173020482
1229,0.0977517032
1230,0.0879765415
1231,0.0782013654
1232,0.0684261989
1233,0.0684261989
1234,0.0684261989
1235,0.0684261989
1236,0.0782013654
1237,0.0684261989
1238,0.0782013654
1239,0.0782013654
1240,0.0782013654
1241,0.0782013654
1242,0.0782013654
1243,0.0684261989
1244,0.0977517032
1245,0.0977517032
1246,0.0782013654
1247,0.0782013654
1248,0.0879765415
1249,0.0782013654
1250,0.0684261989
1251,0.0684261989
1252,0.0684261989
1253,0.0586510229
1254,0.0586510229
1255,0.0488758516
1256,0.0488758516
1257,0.0684261989
1258,0.1075268864
1259,0.0977517032
1260,0.1173020482
1261,0.1173020482
1262,0.1173020482
1263,0.1075268864
1264,0.0977517032
1265,0.1173020482
1266,0.1564027309
1267,0.1955034160
1268,0.1955034160
1269,0.1661779165
1270,0.1368523955
1271,0.1173020482
1272,0.1270772218
1273,0.1368523955
1274,0.1173020482
1275,0.0977517032
1276,0.0879765415
1277,0.0684261989
1278,0.0586510229
1279,0.0586510229
1280,0.0488758516
1281,0.0488758516
1282,0.0488758516
1283,0.0488758516
1284,0.0293255119
1285,0.0293255119
1286,0.0293255119
1287,0.0195503416
1288,0.0195503416
1289,0.0195503416
1290,0.0195503416
1291,0.0293255119
1292,0.0293255119
1293,0.0293255119
1294,0.0293255119
1295,0.0195503416
1296,0.0293255119
1297,0.0391006832
1298,0.0391006832
1299,0.0391006832
1300,0.0391006832
1301,0.0293255119
1302,0.0293255119
1303,0.0195503416
1304,0.0293255119
1305,0.0293255119
1306,0.0293255119
1307,0.0195503416
1308,0.0195503416
1309,0.0097751703
1310,0.0195503416
1311,0.0293255119
1312,0.0391006832
1313,0.0391006832
1314,0.0391006832
1315,0.0293255119
1316,0.0293255119
1317,0.0195503416
1318,0.0195503416
1319,0.0195503416
1320,0.0097751703
1321,0.0195503416
1322,0.0293255119
1323,0.0293255119
1324,0.0293255119
1325,0.0391006832
1326,0.0293255119
1327,0.0293255119
1328,0.0195503416
1329,0.0195503416
1330,0.0097751703
1331,0.0097751703
1332,0.0097751703
1333,0.0097751703
1334,0.0097751703
1335,0.0195503416
1336,0.0097751703
1337,0.0097751703
1338,0.0293255119
1339,0.0391006832
1340,0.0586510229
1341,0.0782013654
1342,0.0879765415
1343,0.0977517032
1344,0.0879765415
1345,0.1173020482
1346,0.1466275596
1347,0.2150537729
1348,0.2150537729
1349,0.2052785873
1350,0.2052785873
1351,0.2150537729
1352,0.2248289346
1353,0.2150537729
1354,0.2052785873
1355,0.2443792819
1356,0.2443792819
1357,0.2834799575
1358,0.2932551193
1359,0.2737047910
1360,0.3030303001
1361,0.3616813421
1362,0.4105571746
1363,0.3812316703
1364,0.4007820129
1365,0.3910068321
1366,0.3225806236
1367,0.2932551193
1368,0.2737047910
1369,0.2639296054
1370,0.2346040964
1371,0.2541544437
1372,0.2639296054
1373,0.2248289346
1374,0.2052785873
1375,0.1857282543
1376,0.1955034160
1377,0.1857282543
1378,0.1759530782
1379,0.1564027309
1380,0.1564027309
1381,0.1564027309
1382,0.1368523955
1383,0.1173020482
1384,0.0977517032
1385,0.0977517032
1386,0.0879765415
1387,0.0782013654
1388,0.0879765415
1389,0.0684261989
1390,0.0684261989
1391,0.0684261989
1392,0.0977517032
1393,0.0977517032
1394,0.0977517032
1395,0.0977517032
1396,0.1075268864
1397,0.0977517032
1398,0.0879765415
1399,0.1075268864
1400,0.0977517032
1401,0.0879765415
1402,0.0684261989
1403,0.0684261989
1404,0.0684261989
1405,0.0684261989
1406,0.0586510229
1407,0.0586510229
1408,0.0488758516
1409,0.0391006832
1410,0.0684261989
1411,0.0684261989
1412,0.0684261989
1413,0.0782013654
1414,0.1270772218
1415,0.1564027309
1416,0.1564027309
1417,0.1368523955
1418,0.1564027309
1419,0.1368523955
1420,0.1270772218
1421,0.1075268864
1422,0.0977517032
1423,0.0879765415
1424,0.0684261989
1425,0.0586510229
1426,0.0488758516
1427,0.0391006832
1428,0.0293255119
1429,0.0293255119
1430,0.0195503416
1431,0.0293255119
1432,0.0293255119
1433,0.0293255119
1434,0.0293255119
1435,0.0195503416
1436,0.0195503416
1437,0.0293255119
1438,0.0195503416
1439,0.0195503416
1440,0.0293255119
1441,0.0195503416
1442,0.0195503416
1443,0.0195503416
1444,0.0195503416
1445,0.0195503416
1446,0.0195503416
1447,0.0488758516
1448,0.0684261989
1449,0.1075268864
1450,0.1270772218
1451,0.1173020482
1452,0.0977517032
1453,0.0879765415
1454,0.0879765415
1455,0.0684261989
1456,0.0879765415
1457,0.0977517032
1458,0.1075268864
1459,0.0782013654
1460,0.0782013654
1461,0.0977517032
1462,0.0977517032
1463,0.1173020482
1464,0.0977517032
1465,0.1075268864
1466,0.1075268864
1467,0.1173020482
1468,0.1075268864
1469,0.1270772218
1470,0.1270772218
1471,0.1368523955
1472,0.1466275596
1473,0.1661779165
1474,0.1661779165
1475,0.1857282543
1476,0.1955034160
1477,0.1955034160
1478,0.2052785873
1479,0.1955034160
1480,0.1955034160
1481,0.2346040964
1482,0.2443792819
1483,0.2248289346
1484,0.2052785873
1485,0.1759530782
1486,0.2052785873
1487,0.1857282543
1488,0.1857282543
1489,0.2052785873
1490,0.2248289346
1491,0.2541544437
1492,0.2150537729
1493,0.2346040964
1494,0.2443792819
1495,0.2150537729
1496,0.2248289346
1497,0.2052785873
1498,0.1857282543
1499,0.1857282543
1500,0.1759530782
1501,0.2052785873
1502,0.1857282543
1503,0.1564027309
1504,0.1466275596
1505,0.1270772218
1506,0.1173020482
1507,0.1173020482
1508,0.0977517032
1509,0.0879765415
1510,0.0782013654
1511,0.0684261989
1512,0.0684261989
1513,0.0586510229
1514,0.0586510229
1515,0.0684261989
1516,0.0684261989
1517,0.0684261989
1518,0.0684261989
1519,0.0684261989
1520,0.0782013654
1521,0.0782013654
1522,0.0684261989
1523,0.0684261989
1524,0.0684261989
1525,0.0684261989
1526,0.0782013654
1527,0.0684261989
1528,0.0586510229
1529,0.0586510229
1530,0.0684261989
1531,0.0782013654
1532,0.0684261989
1533,0.0684261989
1534,0.0782013654
1535,0.0782013654
1536,0.0782013654
1537,0.0879765415
1538,0.1075268864
1539,0.1075268864
1540,0.1075268864
1541,0.0879765415
1542,0.0879765415
1543,0.0782013654
1544,0.0782013654
1545,0.0684261989
1546,0.0586510229
1547,0.0782013654
1548,0.0782013654
1549,0.0782013654
1550,0.0879765415
1551,0.0782013654
1552,0.0684261989
1553,0.0782013654
1554,0.0782013654
1555,0.0782013654
1556,0.0782013654
1557,0.0879765415
1558,0.0977517032
1559,0.1173020482
1560,0.1075268864
1561,0.0977517032
1562,0.1075268864
1563,0.1173020482
1564,0.0977517032
1565,0.0782013654
1566,0.0782013654
1567,0.0684261989
1568,0.0684261989
1569,0.0684261989
1570,0.0488758516
1571,0.0488758516
1572,0.0391006832
1573,0.0293255119
1574,0.0488758516
1575,0.0391006832
1576,0.0293255119
1577,0.0195503416
1578,0.0195503416
1579,0.0195503416
1580,0.0293255119
1581,0.0293255119
1582,0.0293255119
1583,0.0293255119
1584,0.0391006832
1585,0.0293255119
1586,0.0293255119
1587,0.0293255119
1588,0.0391006832
1589,0.0391006832
1590,0.0391006832
1591,0.0391006832
1592,0.0293255119
1593,0.0293255119
1594,0.0293255119
1595,0.0195503416
1596,0.0195503416
1597,0.0097751703
1598,0.0097751703
1599,0.0097751703
1600,0.0097751703
1601,0.0097751703
1602,0.0000000000
1603,0.0000000000
1604,0.0097751703
1605,0.0097751703
1606,0.0097751703
1607,0.0097751703
1608,0.0195503416
1609,0.0195503416
1610,0.0293255119
1611,0.0391006832
1612,0.0586510229
1613,0.0684261989
1614,0.0977517032
1615,0.1075268864
1616,0.1075268864
1617,0.1270772218
1618,0.1466275596
1619,0.1368523955
1620,0.1368523955
1621,0.1368523955
1622,0.1368523955
1623,0.1466275596
1624,0.1466275596
1625,0.1466275596
1626,0.1857282543
1627,0.1661779165
1628,0.1955034160
1629,0.2052785873
1630,0.2248289346
1631,0.2150537729
1632,0.1955034160
1633,0.2248289346
1634,0.2346040964
1635,0.2248289346
1636,0.2443792819
1637,0.2346040964
1638,0.2639296054
1639,0.2541544437
1640,0.2346040964
1641,0.2248289346
1642,0.1955034160
1643,0.1857282543
1644,0.1857282543
1645,0.1857282543
1646,0.2052785873
1647,0.2248289346
1648,0.2346040964
1649,0.2248289346
1650,0.1955034160
1651,0.1857282543
1652,0.1661779165
1653,0.1564027309
1654,0.1270772218
1655,0.1564027309
1656,0.1564027309
1657,0.1661779165
1658,0.1466275596
1659,0.1368523955
1660,0.1270772218
1661,0.1173020482
1662,0.1270772218
1663,0.1173020482
1664,0.1075268864
1665,0.0879765415
1666,0.0879765415
1667,0.1270772218
1668,0.1368523955
1669,0.1173020482
1670,0.1173020482
1671,0.1075268864
1672,0.1075268864
1673,0.0879765415
1674,0.0782013654
1675,0.0879765415
1676,0.0782013654
1677,0.0782013654
1678,0.0782013654
1679,0.0782013654
1680,0.0684261989
1681,0.0684261989
1682,0.0684261989
1683,0.0684261989
1684,0.0782013654
1685,0.0879765415
1686,0.0782013654
1687,0.0684261989
1688,0.0684261989
1689,0.0684261989
1690,0.0684261989
1691,0.0684261989
1692,0.0586510229
1693,0.0684261989
1694,0.0586510229
1695,0.0586510229
1696,0.0977517032
1697,0.0879765415
1698,0.0782013654
1699,0.0684261989
1700,0.0684261989
1701,0.0782013654
1702,0.0684261989
1703,0.0586510229
1704,0.0586510229
1705,0.0586510229
1706,0.0586510229
1707,0.0488758516
1708,0.0488758516
1709,0.0488758516
1710,0.0488758516
1711,0.0586510229
1712,0.0586510229
1713,0.0488758516
1714,0.0488758516
1715,0.0488758516
1716,0.0684261989
1717,0.0879765415
1718,0.0879765415
1719,0.0879765415
1720,0.0782013654
1721,0.0684261989
1722,0.0684261989
1723,0.0684261989
1724,0.0684261989
1725,0.0684261989
1726,0.0586510229
1727,0.0488758516
1728,0.0488758516
1729,0.0391006832
1730,0.0391006832
1731,0.0391006832
1732,0.0293255119
1733,0.0293255119
1734,0.0293255119
1735,0.0293255119
1736,0.0195503416
1737,0.0195503416
1738,0.0195503416
1739,0.0293255119
1740,0.0293255119
1741,0.0293255119
1742,0.0195503416
1743,0.0195503416
1744,0.0195503416
1745,0.0195503416
1746,0.0097751703
1747,0.0097751703
1748,0.0097751703
1749,0.0000000000
1750,0.0097751703
1751,0.0097751703
1752,0.0097751703
1753,0.0097751703
1754,0.0000000000
1755,0.0097751703
1756,0.0000000000
1757,0.0000000000
1758,0.0000000000
1759,0.0000000000
1760,0.0000000000
1761,0.0000000000
1762,0.0000000000
1763,0.0000000000
1764,0.0000000000
1765,0.0097751703
1766,0.0097751703
1767,0.0195503416
1768,0.0195503416
1769,0.0097751703
1770,0.0195503416
1771,0.0195503416
1772,0.0293255119
1773,0.0488758516
1774,0.0586510229
1775,0.0684261989
1776,0.0782013654
1777,0.0684261989
1778,0.0684261989
1779,0.0977517032
1780,0.1173020482
1781,0.1466275596
1782,0.1661779165
1783,0.2052785873
1784,0.2052785873
1785,0.1955034160
1786,0.1857282543
1787,0.1955034160
1788,0.1857282543
1789,0.1955034160
1790,0.2248289346
1791,0.2052785873
1792,0.2443792819
1793,0.2248289346
1794,0.2346040964
1795,0.2443792819
1796,0.2346040964
1797,0.2443792819
1798,0.2346040964
1799,0.2346040964
1800,0.2346040964
1801,0.2346040964
1802,0.2248289346
1803,0.2248289346
1804,0.2052785873
1805,0.1955034160
1806,0.1857282543
1807,0.1955034160
1808,0.1857282543
1809,0.2052785873
1810,0.1759530782
1811,0.1759530782
1812,0.1466275596
1813,0.1564027309
1814,0.1368523955
1815,0.1368523955
1816,0.1368523955
1817,0.1075268864
1818,0.1173020482
1819,0.0977517032
1820,0.1075268864
1821,0.1075268864
1822,0.1173020482
1823,0.1075268864
1824,0.1075268864
1825,0.1075268864
1826,0.1075268864
1827,0.0977517032
1828,0.1173020482
1829,0.0977517032
1830,0.0879765415
1831,0.0879765415
1832,0.0879765415
1833,0.0879765415
1834,0.0684261989
1835,0.0782013654
1836,0.0782013654
1837,0.0684261989
1838,0.0684261989
1839,0.0586510229
1840,0.0586510229
1841,0.0488758516
1842,0.0488758516
1843,0.0488758516
1844,0.0684261989
1845,0.0684261989
1846,0.0586510229
1847,0.0488758516
1848,0.0488758516
1849,0.0586510229
1850,0.0586510229
1851,0.0586510229
1852,0.0488758516
1853,0.0586510229
1854,0.0586510229
1855,0.0879765415
1856,0.0782013654
1857,0.0684261989
1858,0.0684261989
1859,0.0684261989
1860,0.0782013654
1861,0.0782013654
1862,0.0782013654
1863,0.0782013654
1864,0.0782013654
1865,0.0684261989
1866,0.0586510229
1867,0.0782013654
1868,0.0586510229
1869,0.0488758516
1870,0.0684261989
1871,0.0586510229
1872,0.0782013654
1873,0.0684261989
1874,0.0684261989
1875,0.0586510229
1876,0.0488758516
1877,0.0684261989
1878,0.0488758516
1879,0.0488758516
1880,0.0488758516
1881,0.0391006832
1882,0.0391006832
1883,0.0293255119
1884,0.0293255119
1885,0.0293255119
1886,0.0293255119
1887,0.0293255119
1888,0.0195503416
1889,0.0195503416
1890,0.0097751703
1891,0.0097751703
1892,0.0097751703
1893,0.0097751703
1894,0.0097751703
1895,0.0000000000
1896,0.0000000000
1897,0.0000000000
1898,0.0000000000
1899,0.0000000000
1900,0.0000000000
1901,0.0000000000
1902,0.0000000000
1903,0.0000000000
1904,0.0000000000
1905,0.0000000000
1906,0.0000000000
1907,0.0000000000
1908,0.0000000000
1909,0.0000000000
1910,0.0000000000
1911,0.0000000000
1912,0.0000000000
1913,0.0000000000
1914,0.0000000000
1915,0.0000000000
1916,0.0097751703
1917,0.0097751703
1918,0.0195503416
1919,0.0195503416
1920,0.0195503416
1921,0.0293255119
1922,0.0293255119
1923,0.0391006832
1924,0.0488758516
1925,0.0488758516
1926,0.0684261989
1927,0.0586510229
1928,0.0782013654
1929,0.0684261989
1930,0.0879765415
1931,0.0977517032
1932,0.1368523955
1933,0.1564027309
1934,0.2346040964
1935,0.2541544437
1936,0.2248289346
1937,0.2346040964
1938,0.3421309947
1939,0.4203323364
1940,0.4105571746
1941,0.4496578693
1942,0.4496578693
1943,0.3812316703
1944,0.3910068321
1945,0.3519061565
1946,0.3323558330
1947,0.3323558330
1948,0.3030303001
1949,0.2932551193
1950,0.2639296054
1951,0.2443792819
1952,0.2248289346
1953,0.2248289346
1954,0.2052785873
1955,0.2052785873
1956,0.1857282543
1957,0.1661779165
1958,0.1466275596
1959,0.1368523955
1960,0.1466275596
1961,0.1466275596
1962,0.1270772218
1963,0.1270772218
1964,0.1368523955
1965,0.1173020482
1966,0.1075268864
1967,0.1075268864
1968,0.0977517032
1969,0.0977517032
1970,0.0879765415
1971,0.0782013654
1972,0.0782013654
1973,0.0684261989
1974,0.0684261989
1975,0.0879765415
1976,0.0879765415
1977,0.1075268864
1978,0.0879765415
1979,0.0879765415
1980,0.0782013654
1981,0.0782013654
1982,0.0879765415
1983,0.0977517032
1984,0.0782013654
1985,0.0977517032
1986,0.1075268864
1987,0.0977517032
1988,0.0879765415
1989,0.0879765415
1990,0.0879765415
1991,0.0879765415
1992,0.0782013654
1993,0.0782013654
1994,0.0782013654
1995,0.0586510229
1996,0.0684261989
1997,0.0879765415
1998,0.0977517032
1999,0.0977517032
2000,0.1270772218
2001,0.5962854385
2002,0.4985337257
2003,0.4105571746
2004,0.3323558330
2005,0.2737047910
2006,0.2346040964
2007,0.1955034160
2008,0.1564027309
2009,0.1368523955
2010,0.1173020482
2011,0.0977517032
2012,0.0879765415
2013,0.0782013654
2014,0.0782013654
2015,0.0684261989
2016,0.0782013654
2017,0.0684261989
2018,0.0684261989
2019,0.0684261989
2020,0.0586510229
2021,0.0488758516
2022,0.0586510229
2023,0.0586510229
2024,0.0586510229
2025,0.0586510229
2026,0.0586510229
2027,0.0684261989
2028,0.0684261989
2029,0.0684261989
2030,0.0684261989
2031,0.0782013654
2032,0.0684261989
2033,0.0684261989
2034,0.0879765415
2035,0.0977517032
2036,0.0977517032
2037,0.0977517032
2038,0.1270772218
2039,0.1270772218
2040,0.1075268864
2041,0.0977517032
2042,0.1173020482
2043,0.1075268864
2044,0.0977517032
2045,0.0879765415
2046,0.0879765415
2047,0.0977517032
2048,0.0879765415
2049,0.0782013654
2050,0.0782013654
2051,0.0879765415
2052,0.0782013654
2053,0.0684261989
2054,0.0684261989
2055,0.0879765415
2056,0.0879765415
2057,0.0782013654
2058,0.0879765415
2059,0.0879765415
2060,0.0879765415
2061,0.0782013654
2062,0.0879765415
2063,0.0782013654
2064,0.0684261989
2065,0.0684261989
2066,0.0879765415
2067,0.0782013654
2068,0.0782013654
2069,0.0782013654
2070,0.0782013654
2071,0.0879765415
2072,0.0977517032
2073,0.1075268864
2074,0.1173020482
2075,0.1270772218
2076,0.1466275596
2077,0.1661779165
2078,0.1368523955
2079,0.1368523955
2080,0.1270772218
2081,0.1368523955
2082,0.1466275596
2083,0.1759530782
2084,0.1661779165
2085,0.1661779165
2086,0.1759530782
2087,0.1661779165
2088,0.1857282543
2089,0.2150537729
2090,0.2248289346
2091,0.3225806236
2092,0.3616813421
2093,0.3519061565
2094,0.3323558330
2095,0.3812316703
2096,0.4007820129
2097,0.4398827075
2098,0.4594330310
2099,0.5083088874
2100,0.4789833545
2101,0.4398827075
2102,0.4496578693
2103,0.4398827075
2104,0.4496578693
2105,0.4887585639
2106,0.4496578693
2107,0.3910068321
2108,0.3519061565
2109,0.3030303001
2110,0.2834799575
2111,0.2737047910
2112,0.2443792819
2113,0.2248289346
2114,0.2248289346
2115,0.2248289346
2116,0.2150537729
2117,0.1857282543
2118,0.1759530782
2119,0.1955034160
2120,0.1759530782
2121,0.1564027309
2122,0.1368523955
2123,0.1173020482
2124,0.1270772218
2125,0.1173020482
2126,0.1075268864
2127,0.1075268864
2128,0.0977517032
2129,0.0879765415
2130,0.0782013654
2131,0.0879765415
2132,0.0977517032
2133,0.1075268864
2134,0.0879765415
2135,0.0879765415
2136,0.0879765415
2137,0.0782013654
2138,0.0684261989
2139,0.0684261989
2140,0.0782013654
2141,0.0782013654
2142,0.0879765415
2143,0.0879765415
2144,0.0782013654
2145,0.0782013654
2146,0.0977517032
2147,0.0879765415
2148,0.0977517032
2149,0.0879765415
2150,0.0879765415
2151,0.0977517032
2152,0.0879765415
2153,0.0782013654
2154,0.0782013654
2155,0.0684261989
2156,0.0684261989
2157,0.0586510229
2158,0.0684261989
2159,0.0684261989
2160,0.0782013654
2161,0.0684261989
2162,0.0586510229
2163,0.0586510229
2164,0.0586510229
2165,0.0782013654
2166,0.0684261989
2167,0.0879765415
2168,0.0782013654
2169,0.0879765415
2170,0.0879765415
2171,0.0879765415
2172,0.0782013654
2173,0.0879765415
2174,0.0782013654
2175,0.0782013654
2176,0.0684261989
2177,0.0586510229
2178,0.0586510229
2179,0.0586510229
2180,0.0488758516
2181,0.0586510229
2182,0.0488758516
2183,0.0488758516
2184,0.0391006832
2185,0.0488758516
2186,0.0488758516
2187,0.0391006832
2188,0.0488758516
2189,0.0488758516
2190,0.0488758516
2191,0.0391006832
2192,0.0391006832
2193,0.0391006832
2194,0.0391006832
2195,0.0391006832
2196,0.0391006832
2197,0.0391006832
2198,0.0391006832
2199,0.0391006832
2200,0.0391006832
2201,0.0391006832
2202,0.0391006832
2203,0.0293255119
2204,0.0293255119
2205,0.0391006832
2206,0.0488758516
2207,0.0586510229
2208,0.0488758516
2209,0.0488758516
2210,0.0488758516
2211,0.0586510229
2212,0.0684261989
2213,0.0684261989
2214,0.0782013654
2215,0.0684261989
2216,0.0684261989
2217,0.0684261989
2218,0.0782013654
2219,0.0782013654
2220,0.0684261989
2221,0.0586510229
2222,0.0488758516
2223,0.0488758516
2224,0.0488758516
2225,0.0586510229
2226,0.0586510229
2227,0.0488758516
2228,0.0586510229
2229,0.0586510229
2230,0.0488758516
2231,0.0586510229
2232,0.0488758516
2233,0.0488758516
2234,0.0586510229
2235,0.0488758516
2236,0.0488758516
2237,0.0391006832
2238,0.0488758516
2239,0.0488758516
2240,0.0488758516
2241,0.0391006832
2242,0.0391006832
2243,0.0391006832
2244,0.0488758516
2245,0.0586510229
2246,0.0586510229
2247,0.0488758516
2248,0.0879765415
2249,0.0782013654
2250,0.0782013654
2251,0.0879765415
2252,0.0782013654
2253,0.0782013654
2254,0.0782013654
2255,0.0782013654
2256,0.0782013654
2257,0.0782013654
2258,0.0782013654
2259,0.0684261989
2260,0.0586510229
2261,0.0684261989
2262,0.0684261989
2263,0.0782013654
2264,0.0879765415
2265,0.0782013654
2266,0.0977517032
2267,0.1075268864
2268,0.1270772218
2269,0.1270772218
2270,0.1270772218
2271,0.1270772218
2272,0.1368523955
2273,0.1368523955
2274,0.1466275596
2275,0.1466275596
2276,0.1564027309
2277,0.1661779165
2278,0.1661779165
2279,0.1759530782
2280,0.2541544437
2281,0.2639296054
2282,0.2834799575
2283,0.2639296054
2284,0.2639296054
2285,0.2443792819
2286,0.2541544437
2287,0.2443792819
2288,0.2248289346
2289,0.2443792819
2290,0.2248289346
2291,0.2150537729
2292,0.1955034160
2293,0.1857282543
2294,0.2052785873
2295,0.2150537729
2296,0.1955034160
2297,0.1661779165
2298,0.1466275596
2299,0.1466275596
2300,0.1368523955
2301,0.1661779165
2302,0.1661779165
2303,0.1564027309
2304,0.1759530782
2305,0.1759530782
2306,0.1661779165
2307,0.1466275596
2308,0.1564027309
2309,0.1661779165
2310,0.1564027309
2311,0.1564027309
2312,0.1368523955
2313,0.1368523955
2314,0.1466275596
2315,0.1466275596
2316,0.1564027309
2317,0.1368523955
2318,0.1466275596
2319,0.1368523955
2320,0.1368523955
2321,0.1270772218
2322,0.1270772218
2323,0.1075268864
2324,0.0879765415
2325,0.0782013654
2326,0.0684261989
2327,0.0586510229
2328,0.0684261989
2329,0.0684261989
2330,0.0782013654
2331,0.1075268864
2332,0.1270772218
2333,0.1270772218
2334,0.1270772218
2335,0.1173020482
2336,0.1270772218
2337,0.1173020482
2338,0.0977517032
2339,0.1075268864
2340,0.0977517032
2341,0.1270772218
2342,0.1075268864
2343,0.1075268864
2344,0.1173020482
2345,0.1075268864
2346,0.1075268864
2347,0.0977517032
2348,0.0977517032
2349,0.0879765415
2350,0.0879765415
2351,0.0879765415
2352,0.0782013654
2353,0.0684261989
2354,0.0684261989
2355,0.0684261989
2356,0.0684261989
2357,0.0684261989
2358,0.0879765415
2359,0.0879765415
2360,0.1075268864
2361,0.0977517032
2362,0.0879765415
2363,0.0977517032
2364,0.0977517032
2365,0.0977517032
2366,0.0977517032
2367,0.0879765415
2368,0.0782013654
2369,0.0782013654
2370,0.0782013654
2371,0.0879765415
2372,0.0782013654
2373,0.0782013654
2374,0.0684261989
2375,0.0586510229
2376,0.0586510229
2377,0.0488758516
2378,0.0488758516
2379,0.0488758516
2380,0.0586510229
2381,0.0488758516
2382,0.0488758516
2383,0.0488758516
2384,0.0488758516
2385,0.0586510229
2386,0.0488758516
2387,0.0488758516
2388,0.0586510229
2389,0.0488758516
2390,0.0586510229
2391,0.0684261989
2392,0.0684261989
2393,0.0684261989
2394,0.0684261989
2395,0.0684261989
2396,0.0684261989
2397,0.0684261989
2398,0.0586510229
2399,0.0586510229
2400,0.0684261989
2401,0.0684261989
2402,0.0782013654
2403,0.0782013654
2404,0.0782013654
2405,0.0782013654
2406,0.0879765415
2407,0.0879765415
2408,0.0782013654
2409,0.0879765415
2410,0.1173020482
2411,0.1368523955
2412,0.1368523955
2413,0.1270772218
2414,0.1368523955
2415,0.1368523955
2416,0.1466275596
2417,0.1466275596
2418,0.1857282543
2419,0.2150537729
2420,0.2443792819
2421,0.2346040964
2422,0.2248289346
2423,0.2737047910
2424,0.2834799575
2425,0.3030303001
2426,0.2834799575
2427,0.2639296054
2428,0.2834799575
2429,0.2834799575
2430,0.3030303001
2431,0.2737047910
