0,0.2639296054
1,0.3128054618
2,0.3323558330
3,0.3323558330
4,0.3323558330
5,0.3225806236
6,0.2834799575
7,0.2541544437
8,0.2639296054
9,0.2346040964
10,0.2052785873
11,0.1857282543
12,0.1857282543
13,0.1857282543
14,0.1857282543
15,0.1564027309
16,0.1759530782
17,0.1661779165
18,0.1368523955
19,0.1368523955
20,0.1368523955
21,0.1075268864
22,0.1075268864
23,0.0977517032
24,0.0879765415
25,0.0879765415
26,0.0782013654
27,0.0684261989
28,0.0782013654
29,0.0879765415
30,0.1173020482
31,0.1564027309
32,0.1661779165
33,0.1759530782
34,0.1857282543
35,0.1564027309
36,0.1368523955
37,0.1270772218
38,0.1075268864
39,0.1075268864
40,0.0977517032
41,0.1173020482
42,0.1368523955
43,0.2443792819
44,0.2541544437
45,0.3323558330
46,0.3323558330
47,0.3128054618
48,0.3128054618
49,0.2737047910
50,0.2443792819
51,0.2150537729
52,0.1857282543
53,0.1564027309
54,0.1759530782
55,0.1857282543
56,0.2052785873
57,0.2052785873
58,0.1759530782
59,0.1466275596
60,0.1270772218
61,0.1368523955
62,0.1466275596
63,0.1564027309
64,0.1368523955
65,0.1564027309
66,0.1759530782
67,0.1661779165
68,0.1661779165
69,0.3421309947
70,0.3616813421
71,0.4007820129
72,0.3714565038
73,0.3128054618
74,0.2737047910
75,0.2541544437
76,0.2541544437
77,0.2248289346
78,0.1857282543
79,0.1759530782
80,0.1955034160
81,0.1955034160
82,0.1857282543
83,0.1955034160
84,0.1857282543
85,0.1661779165
86,0.1564027309
87,0.1466275596
88,0.1466275596
89,0.1270772218
90,0.1270772218
91,0.1368523955
92,0.1564027309
93,0.1759530782
94,0.1661779165
95,0.1564027309
96,0.1466275596
97,0.1270772218
98,0.1368523955
99,0.1368523955
100,0.1661779165
101,0.1955034160
102,0.2443792819
103,0.2541544437
104,0.2443792819
105,0.2443792819
106,0.2346040964
107,0.2541544437
108,0.2443792819
109,0.2639296054
110,0.2541544437
111,0.2639296054
112,0.2346040964
113,0.2541544437
114,0.2737047910
115,0.2737047910
116,0.2834799575
117,0.2541544437
118,0.2443792819
119,0.2248289346
120,0.2052785873
121,0.1955034160
122,0.1857282543
123,0.1955034160
124,0.1661779165
125,0.1759530782
126,0.1857282543
127,0.2248289346
128,0.2346040964
129,0.1857282543
130,0.1661779165
131,0.1564027309
132,0.1466275596
133,0.1368523955
134,0.1368523955
135,0.1270772218
136,0.1173020482
137,0.1270772218
138,0.1270772218
139,0.1173020482
140,0.1173020482
141,0.1075268864
142,0.0977517032
143,0.1270772218
144,0.1564027309
145,0.1466275596
146,0.1270772218
147,0.0977517032
148,0.1075268864
149,0.0977517032
150,0.0977517032
151,0.1075268864
152,0.0977517032
153,0.0977517032
154,0.0977517032
155,0.0879765415
156,0.0977517032
157,0.1075268864
158,0.0977517032
159,0.0879765415
160,0.0782013654
161,0.0684261989
162,0.0879765415
163,0.0879765415
164,0.0977517032
165,0.0977517032
166,0.1075268864
167,0.1075268864
168,0.1270772218
169,0.1368523955
170,0.1270772218
171,0.1270772218
172,0.1075268864
173,0.0977517032
174,0.0977517032
175,0.1173020482
176,0.1270772218
177,0.1270772218
178,0.1173020482
179,0.1075268864
180,0.1173020482
181,0.0977517032
182,0.1270772218
183,0.1368523955
184,0.1955034160
185,0.2248289346
186,0.2150537729
187,0.3225806236
188,0.3225806236
189,0.3030303001
190,0.3128054618
191,0.2737047910
192,0.2443792819
193,0.2443792819
194,0.2248289346
195,0.1955034160
196,0.1661779165
197,0.1661779165
198,0.1466275596
199,0.1173020482
200,0.0977517032
201,0.0782013654
202,0.0586510229
203,0.0586510229
204,0.0782013654
205,0.0977517032
206,0.1368523955
207,0.1564027309
208,0.1857282543
209,0.2150537729
210,0.1857282543
211,0.1661779165
212,0.1661779165
213,0.1661779165
214,0.2052785873
215,0.2443792819
216,0.2346040964
217,0.2052785873
218,0.2150537729
219,0.2248289346
220,0.2346040964
221,0.2737047910
222,0.3030303001
223,0.3323558330
224,0.4398827075
225,0.4398827075
226,0.6549364089
227,0.6549364089
228,0.7331378459
229,0.8308895111
230,0.9188660621
231,1.0263929367
232,1.0263929367
233,0.9286412239
234,0.8308895111
235,0.6842619895
236,0.5962854385
237,0.5083088874
238,0.5083088874
239,0.5865102291
240,0.6451612472
241,0.5474095821
242,0.4594330310
243,0.3812316703
244,0.3616813421
245,0.3519061565
246,0.3030303001
247,0.2932551193
248,0.2639296054
249,0.2346040964
250,0.1955034160
251,0.1759530782
252,0.1564027309
253,0.1466275596
254,0.1368523955
255,0.1270772218
256,0.1075268864
257,0.0879765415
258,0.1075268864
259,0.0977517032
260,0.0879765415
261,0.0782013654
262,0.0879765415
263,0.0879765415
264,0.0879765415
265,0.1075268864
266,0.1270772218
267,0.1564027309
268,0.1368523955
269,0.1173020482
270,0.1075268864
271,0.0879765415
272,0.0782013654
273,0.0684261989
274,0.0782013654
275,0.0684261989
276,0.0879765415
277,0.0977517032
278,0.0879765415
279,0.0879765415
280,0.0879765415
281,0.0782013654
282,0.0782013654
283,0.0782013654
284,0.0879765415
285,0.0879765415
286,0.0782013654
287,0.0782013654
288,0.0684261989
289,0.0684261989
290,0.0782013654
291,0.0782013654
292,0.0684261989
293,0.0586510229
294,0.0684261989
295,0.0977517032
296,0.1270772218
297,0.1368523955
298,0.1270772218
299,0.1270772218
300,0.1173020482
301,0.1075268864
302,0.1075268864
303,0.0977517032
304,0.0879765415
305,0.0782013654
306,0.0684261989
307,0.0586510229
308,0.0488758516
309,0.0488758516
310,0.0586510229
311,0.0488758516
312,0.0586510229
313,0.0879765415
314,0.1270772218
315,0.1270772218
316,0.1173020482
317,0.1368523955
318,0.1564027309
319,0.1466275596
320,0.1270772218
321,0.0977517032
322,0.0977517032
323,0.0782013654
324,0.0586510229
325,0.0586510229
326,0.0488758516
327,0.0391006832
328,0.0391006832
329,0.0391006832
330,0.0293255119
331,0.0293255119
332,0.0195503416
333,0.0195503416
334,0.0195503416
335,0.0195503416
336,0.0195503416
337,0.0195503416
338,0.0391006832
339,0.0586510229
340,0.0879765415
341,0.0879765415
342,0.0977517032
343,0.1075268864
344,0.1173020482
345,0.1173020482
346,0.1759530782
347,0.1759530782
348,0.1955034160
349,0.2443792819
350,0.3225806236
351,0.4007820129
352,0.3812316703
353,0.3616813421
354,0.4301075458
355,0.5962854385
356,0.6549364089
357,0.5474095821
358,0.5180840492
359,0.4887585639
360,0.5767350673
361,0.7233626842
362,0.7135874748
363,0.6256109237
364,0.5767350673
365,0.5962854385
366,0.5278592109
367,0.4594330310
368,0.4105571746
369,0.3812316703
370,0.3812316703
371,0.3519061565
372,0.4496578693
373,0.5083088874
374,0.4398827075
375,0.3910068321
376,0.3519061565
377,0.3225806236
378,0.3030303001
379,0.2932551193
380,0.3519061565
381,0.3225806236
382,0.3128054618
383,0.2737047910
384,0.3225806236
385,0.3030303001
386,0.2737047910
387,0.2248289346
388,0.1955034160
389,0.1661779165
390,0.1564027309
391,0.1564027309
392,0.1661779165
393,0.1368523955
394,0.1368523955
395,0.1173020482
396,0.0977517032
397,0.1173020482
398,0.1173020482
399,0.1368523955
400,0.1173020482
401,0.1270772218
402,0.1466275596
403,0.1270772218
404,0.1173020482
405,0.1075268864
406,0.0977517032
407,0.0879765415
408,0.1466275596
409,0.1661779165
410,0.1564027309
411,0.1564027309
412,0.1466275596
413,0.1759530782
414,0.2052785873
415,0.2248289346
416,0.2443792819
417,0.2834799575
418,0.2541544437
419,0.2150537729
420,0.1857282543
421,0.1661779165
422,0.1466275596
423,0.1173020482
424,0.1075268864
425,0.0977517032
426,0.0977517032
427,0.1075268864
428,0.0977517032
429,0.1173020482
430,0.1173020482
431,0.0977517032
432,0.0879765415
433,0.0782013654
434,0.0782013654
435,0.0879765415
436,0.1075268864
437,0.1173020482
438,0.1173020482
439,0.0879765415
440,0.0782013654
441,0.0684261989
442,0.0586510229
443,0.0586510229
444,0.0586510229
445,0.0488758516
446,0.0488758516
447,0.0391006832
448,0.0391006832
449,0.0391006832
450,0.0488758516
451,0.0782013654
452,0.1270772218
453,0.2248289346
454,0.2737047910
455,0.2639296054
456,0.2834799575
457,0.3128054618
458,0.3323558330
459,0.3128054618
460,0.3030303001
461,0.2639296054
462,0.2248289346
463,0.2346040964
464,0.2443792819
465,0.2052785873
466,0.1759530782
467,0.1564027309
468,0.1270772218
469,0.1075268864
470,0.1075268864
471,0.1075268864
472,0.1368523955
473,0.1564027309
474,0.1661779165
475,0.1466275596
476,0.1466275596
477,0.1368523955
478,0.1466275596
479,0.1368523955
480,0.1173020482
481,0.1270772218
482,0.1075268864
483,0.1173020482
484,0.1270772218
485,0.1368523955
486,0.1270772218
487,0.1466275596
488,0.1759530782
489,0.1759530782
490,0.2248289346
491,0.3421309947
492,0.4594330310
493,0.4692081928
494,0.4985337257
495,0.5474095821
496,0.5669599056
497,0.5278592109
498,0.4789833545
499,0.4887585639
500,0.4692081928
501,0.6060606002
502,0.6060606002
503,0.6060606002
504,0.8113391876
505,0.7820136547
506,0.7526881694
507,0.9872922897
508,0.9970674514
509,0.9286412239
510,0.8211143493
511,0.7038123130
512,0.6158357620
513,0.5376344203
514,0.5083088874
515,0.4398827075
516,0.3812316703
517,0.3519061565
518,0.3225806236
519,0.2737047910
520,0.2443792819
521,0.2052785873
522,0.1857282543
523,0.1759530782
524,0.1661779165
525,0.1564027309
526,0.1368523955
527,0.1564027309
528,0.1759530782
529,0.2052785873
530,0.2346040964
531,0.2639296054
532,0.2932551193
533,0.2932551193
534,0.3225806236
535,0.3714565038
536,0.3910068321
537,0.3714565038
538,0.3616813421
539,0.3323558330
540,0.3225806236
541,0.3030303001
542,0.2541544437
543,0.2248289346
544,0.1955034160
545,0.1857282543
546,0.1564027309
547,0.1368523955
548,0.1270772218
549,0.1270772218
550,0.1368523955
551,0.1368523955
552,0.1466275596
553,0.1368523955
554,0.1368523955
555,0.1270772218
556,0.0977517032
557,0.0977517032
558,0.0879765415
559,0.0782013654
560,0.0684261989
561,0.0684261989
562,0.0586510229
563,0.0684261989
564,0.0684261989
565,0.0586510229
566,0.0684261989
567,0.0586510229
568,0.0586510229
569,0.0586510229
570,0.0684261989
571,0.1173020482
572,0.1270772218
573,0.1270772218
574,0.1270772218
575,0.1661779165
576,0.1759530782
577,0.1759530782
578,0.1564027309
579,0.1368523955
580,0.1368523955
581,0.1173020482
582,0.0879765415
583,0.0782013654
584,0.0684261989
585,0.0684261989
586,0.0488758516
587,0.0488758516
588,0.0782013654
589,0.1759530782
590,0.1955034160
591,0.2443792819
592,0.2834799575
593,0.3030303001
594,0.2932551193
595,0.2541544437
596,0.2052785873
597,0.1857282543
598,0.1564027309
599,0.1466275596
600,0.1270772218
601,0.1173020482
602,0.1270772218
603,0.1075268864
604,0.0879765415
605,0.0782013654
606,0.0782013654
607,0.1173020482
608,0.1661779165
609,0.2248289346
610,0.2346040964
611,0.2150537729
612,0.2052785873
613,0.1661779165
614,0.1661779165
615,0.2052785873
616,0.1661779165
617,0.2248289346
618,0.2346040964
619,0.2150537729
620,0.2052785873
621,0.1857282543
622,0.1759530782
623,0.1759530782
624,0.2248289346
625,0.3128054618
626,0.3323558330
627,0.3812316703
628,0.3910068321
629,0.4789833545
630,0.4985337257
631,0.4692081928
632,0.4398827075
633,0.4203323364
634,0.4496578693
635,0.4887585639
636,0.6451612472
637,0.7917888641
638,0.7135874748
639,0.6060606002
640,0.5571847438
641,0.5962854385
642,0.5669599056
643,0.5962854385
644,0.5669599056
645,0.4887585639
646,0.4398827075
647,0.3812316703
648,0.3421309947
649,0.3128054618
650,0.3030303001
651,0.2737047910
652,0.2248289346
653,0.2150537729
654,0.1857282543
655,0.1759530782
656,0.1857282543
657,0.2150537729
658,0.2541544437
659,0.2541544437
660,0.2150537729
661,0.1955034160
662,0.2052785873
663,0.2541544437
664,0.2834799575
665,0.3128054618
666,0.3128054618
667,0.3225806236
668,0.3323558330
669,0.3323558330
670,0.3128054618
671,0.4203323364
672,0.4594330310
673,0.4594330310
674,0.4496578693
675,0.4203323364
676,0.3812316703
677,0.3030303001
678,0.2834799575
679,0.2443792819
680,0.2150537729
681,0.2052785873
682,0.2052785873
683,0.2052785873
684,0.2052785873
685,0.1759530782
686,0.1564027309
687,0.1270772218
688,0.1173020482
689,0.1173020482
690,0.1466275596
691,0.1368523955
692,0.1466275596
693,0.1759530782
694,0.1955034160
695,0.1857282543
696,0.1564027309
697,0.1270772218
698,0.1075268864
699,0.0879765415
700,0.0782013654
701,0.0684261989
702,0.0586510229
703,0.0586510229
704,0.0782013654
705,0.0782013654
706,0.0782013654
707,0.0586510229
708,0.0586510229
709,0.0586510229
710,0.1075268864
711,0.1466275596
712,0.1270772218
713,0.1368523955
714,0.1466275596
715,0.1564027309
716,0.1661779165
717,0.1759530782
718,0.1955034160
719,0.2150537729
720,0.1955034160
721,0.3030303001
722,0.3225806236
723,0.2834799575
724,0.2541544437
725,0.2150537729
726,0.1759530782
727,0.1466275596
728,0.1368523955
729,0.1368523955
730,0.1564027309
731,0.1661779165
732,0.1759530782
733,0.1857282543
734,0.1955034160
735,0.1759530782
736,0.1466275596
737,0.1368523955
738,0.1368523955
739,0.1173020482
740,0.1368523955
741,0.1564027309
742,0.1857282543
743,0.2150537729
744,0.1857282543
745,0.1661779165
746,0.1661779165
747,0.1564027309
748,0.1466275596
749,0.1564027309
750,0.1466275596
751,0.1466275596
752,0.1466275596
753,0.1661779165
754,0.1368523955
755,0.1661779165
756,0.1564027309
757,0.2541544437
758,0.3714565038
759,0.3910068321
760,0.4985337257
761,0.5571847438
762,0.4789833545
763,0.4692081928
764,0.5083088874
765,0.5278592109
766,0.5278592109
767,0.5180840492
768,0.4496578693
769,0.4203323364
770,0.6158357620
771,0.8113391876
772,0.9481915473
773,0.8406646728
774,0.7624633312
775,0.7233626842
776,0.7331378459
777,0.7233626842
778,0.6842619895
779,0.6744868278
780,0.5962854385
781,0.5180840492
782,0.4496578693
783,0.4105571746
784,0.4301075458
785,0.3910068321
786,0.3616813421
787,0.4398827075
788,0.4203323364
789,0.3714565038
790,0.3225806236
791,0.3030303001
792,0.2737047910
793,0.2346040964
794,0.2052785873
795,0.1955034160
796,0.1759530782
797,0.1564027309
798,0.1368523955
799,0.1661779165
800,0.1955034160
801,0.2052785873
802,0.2150537729
803,0.2150537729
804,0.2346040964
805,0.2541544437
806,0.2443792819
807,0.2150537729
808,0.2052785873
809,0.2346040964
810,0.3030303001
811,0.3225806236
812,0.3128054618
813,0.3128054618
814,0.2541544437
815,0.2150537729
816,0.1759530782
817,0.1661779165
818,0.1564027309
819,0.1564027309
820,0.1564027309
821,0.1564027309
822,0.1857282543
823,0.2052785873
824,0.2346040964
825,0.2150537729
826,0.1759530782
827,0.1466275596
828,0.1368523955
829,0.1270772218
830,0.1075268864
831,0.1075268864
832,0.0879765415
833,0.0782013654
834,0.0879765415
835,0.0879765415
836,0.0782013654
837,0.0782013654
838,0.0977517032
839,0.1270772218
840,0.1466275596
841,0.1173020482
842,0.0977517032
843,0.0879765415
844,0.1173020482
845,0.1564027309
846,0.1564027309
847,0.1368523955
848,0.1759530782
849,0.2541544437
850,0.3616813421
851,0.4203323364
852,0.4398827075
853,0.4887585639
854,0.4398827075
855,0.3519061565
856,0.2834799575
857,0.2443792819
858,0.2052785873
859,0.1955034160
860,0.2052785873
861,0.1857282543
862,0.1564027309
863,0.1466275596
864,0.1270772218
865,0.1075268864
866,0.0977517032
867,0.0782013654
868,0.0684261989
869,0.0586510229
870,0.1173020482
871,0.1759530782
872,0.1955034160
873,0.3323558330
874,0.2932551193
875,0.2834799575
876,0.3128054618
877,0.3225806236
878,0.2834799575
879,0.2443792819
880,0.2248289346
881,0.2150537729
882,0.2052785873
883,0.1759530782
884,0.1661779165
885,0.1759530782
886,0.1661779165
887,0.2541544437
888,0.3519061565
889,0.4789833545
890,0.5962854385
891,0.5962854385
892,0.5669599056
893,0.5376344203
894,0.4789833545
895,0.6060606002
896,0.7038123130
897,0.7429130077
898,0.7722384929
899,0.9384163856
900,0.9579667091
901,0.8504399299
902,0.7135874748
903,0.6451612472
904,0.7135874748
905,0.7038123130
906,0.7917888641
907,0.6940371513
908,0.6549364089
909,0.6060606002
910,0.5083088874
911,0.4692081928
912,0.4105571746
913,0.3519061565
914,0.3030303001
915,0.2541544437
916,0.2346040964
917,0.2443792819
918,0.2150537729
919,0.2052785873
920,0.1955034160
921,0.1955034160
922,0.1759530782
923,0.1955034160
924,0.1955034160
925,0.1759530782
926,0.1466275596
927,0.1368523955
928,0.1173020482
929,0.0977517032
930,0.0879765415
931,0.0977517032
932,0.1075268864
933,0.1173020482
934,0.1368523955
935,0.1466275596
936,0.1368523955
937,0.1661779165
938,0.1857282543
939,0.1857282543
940,0.1661779165
941,0.1466275596
942,0.1270772218
943,0.1173020482
944,0.0977517032
945,0.0879765415
946,0.0782013654
947,0.0782013654
948,0.0684261989
949,0.0684261989
950,0.0684261989
951,0.0684261989
952,0.0684261989
953,0.0586510229
954,0.0586510229
955,0.0488758516
956,0.0488758516
957,0.0586510229
958,0.0586510229
959,0.0586510229
960,0.0586510229
961,0.0488758516
962,0.0488758516
963,0.0488758516
964,0.0488758516
965,0.0684261989
966,0.0879765415
967,0.0879765415
968,0.0879765415
969,0.0977517032
970,0.0782013654
971,0.0586510229
972,0.0586510229
973,0.0684261989
974,0.0684261989
975,0.0684261989
976,0.0782013654
977,0.0782013654
978,0.0684261989
979,0.0488758516
980,0.0586510229
981,0.1075268864
982,0.1270772218
983,0.1368523955
984,0.1661779165
985,0.1955034160
986,0.2248289346
987,0.3421309947
988,0.4105571746
989,0.4301075458
990,0.5669599056
991,0.5571847438
992,0.5278592109
993,0.4692081928
994,0.4496578693
995,0.6451612472
996,0.6060606002
997,0.5180840492
998,0.4496578693
999,0.3812316703
1000,0.3421309947
1001,1.1730204820
1002,0.9188660621
1003,0.7233626842
1004,0.5767350673
1005,0.4496578693
1006,0.3519061565
1007,0.2834799575
1008,0.2248289346
1009,0.1857282543
1010,0.1564027309
1011,0.1270772218
1012,0.1075268864
1013,0.0879765415
1014,0.0879765415
1015,0.0684261989
1016,0.0684261989
1017,0.0782013654
1018,0.0977517032
1019,0.1173020482
1020,0.1173020482
1021,0.1075268864
1022,0.1270772218
1023,0.1466275596
1024,0.1466275596
1025,0.1270772218
1026,0.1270772218
1027,0.1270772218
1028,0.1270772218
1029,0.1661779165
1030,0.1759530782
1031,0.1661779165
1032,0.1759530782
1033,0.1955034160
1034,0.1857282543
1035,0.1955034160
1036,0.1759530782
1037,0.1759530782
1038,0.1759530782
1039,0.1759530782
1040,0.1857282543
1041,0.1661779165
1042,0.1661779165
1043,0.1661779165
1044,0.1564027309
1045,0.1661779165
1046,0.1661779165
1047,0.1661779165
1048,0.1857282543
1049,0.1857282543
1050,0.1857282543
1051,0.1661779165
1052,0.1466275596
1053,0.1368523955
1054,0.1075268864
1055,0.1075268864
1056,0.1075268864
1057,0.0977517032
1058,0.0977517032
1059,0.1075268864
1060,0.0977517032
1061,0.0879765415
1062,0.0879765415
1063,0.1075268864
1064,0.1075268864
1065,0.1173020482
1066,0.1075268864
1067,0.0879765415
1068,0.0879765415
1069,0.0879765415
1070,0.0782013654
1071,0.0879765415
1072,0.0879765415
1073,0.0782013654
1074,0.0684261989
1075,0.0586510229
1076,0.0586510229
1077,0.0586510229
1078,0.0488758516
1079,0.0586510229
1080,0.0586510229
1081,0.0586510229
1082,0.0586510229
1083,0.0488758516
1084,0.0488758516
1085,0.0391006832
1086,0.0586510229
1087,0.0684261989
1088,0.0782013654
1089,0.0684261989
1090,0.0684261989
1091,0.0586510229
1092,0.0684261989
1093,0.0586510229
1094,0.0684261989
1095,0.0977517032
1096,0.0879765415
1097,0.1270772218
1098,0.1173020482
1099,0.1173020482
1100,0.0977517032
1101,0.0879765415
1102,0.1173020482
1103,0.1075268864
1104,0.1075268864
1105,0.0977517032
1106,0.0879765415
1107,0.0782013654
1108,0.0782013654
1109,0.0782013654
1110,0.0684261989
1111,0.0684261989
1112,0.0586510229
1113,0.0684261989
1114,0.0684261989
1115,0.0586510229
1116,0.0684261989
1117,0.0782013654
1118,0.0977517032
1119,0.1270772218
1120,0.1173020482
1121,0.1564027309
1122,0.1368523955
1123,0.1270772218
1124,0.1270772218
1125,0.1368523955
1126,0.1270772218
1127,0.1075268864
1128,0.0879765415
1129,0.0782013654
1130,0.0586510229
1131,0.0586510229
1132,0.0488758516
1133,0.0391006832
1134,0.0293255119
1135,0.0293255119
1136,0.0293255119
1137,0.0195503416
1138,0.0195503416
1139,0.0195503416
1140,0.0195503416
1141,0.0391006832
1142,0.0488758516
1143,0.0488758516
1144,0.0391006832
1145,0.0586510229
1146,0.0684261989
1147,0.0586510229
1148,0.0684261989
1149,0.0684261989
1150,0.1173020482
1151,0.1075268864
1152,0.1075268864
1153,0.1075268864
1154,0.0977517032
1155,0.1173020482
1156,0.1466275596
1157,0.1564027309
1158,0.1661779165
1159,0.1466275596
1160,0.1368523955
1161,0.1564027309
1162,0.1564027309
1163,0.1564027309
1164,0.1759530782
1165,0.1661779165
1166,0.1368523955
1167,0.1270772218
1168,0.1075268864
1169,0.1173020482
1170,0.1368523955
1171,0.1270772218
1172,0.1466275596
1173,0.1466275596
1174,0.1466275596
1175,0.1368523955
1176,0.1173020482
1177,0.1075268864
1178,0.1075268864
1179,0.1075268864
1180,0.0879765415
1181,0.0782013654
1182,0.0782013654
1183,0.0782013654
1184,0.0879765415
1185,0.0684261989
1186,0.0684261989
1187,0.0586510229
1188,0.0684261989
1189,0.0684261989
1190,0.0488758516
1191,0.0488758516
1192,0.0586510229
1193,0.0586510229
1194,0.0684261989
1195,0.0586510229
1196,0.0488758516
1197,0.0684261989
1198,0.0586510229
1199,0.0586510229
1200,0.0586510229
1201,0.0586510229
1202,0.0977517032
1203,0.0977517032
1204,0.0977517032
1205,0.0879765415
1206,0.0879765415
1207,0.0977517032
1208,0.0879765415
1209,0.1075268864
1210,0.1075268864
1211,0.1466275596
1212,0.1368523955
1213,0.1466275596
1214,0.1466275596
1215,0.1270772218
1216,0.1270772218
1217,0.1270772218
1218,0.1270772218
1219,0.1368523955
1220,0.1270772218
1221,0.1270772218
1222,0.1270772218
1223,0.1368523955
1224,0.1661779165
1225,0.1368523955
1226,0.1368523955
1227,0.1270772218
1228,0.1075268864
1229,0.0879765415
1230,0.0782013654
1231,0.0684261989
1232,0.0684261989
1233,0.0684261989
1234,0.0586510229
1235,0.0488758516
1236,0.0488758516
1237,0.0488758516
1238,0.0684261989
1239,0.0782013654
1240,0.0782013654
1241,0.0586510229
1242,0.0488758516
1243,0.0488758516
1244,0.0391006832
1245,0.0391006832
1246,0.0391006832
1247,0.0391006832
1248,0.0293255119
1249,0.0195503416
1250,0.0195503416
1251,0.0195503416
1252,0.0293255119
1253,0.0293255119
1254,0.0293255119
1255,0.0293255119
1256,0.0195503416
1257,0.0195503416
1258,0.0195503416
1259,0.0195503416
1260,0.0195503416
1261,0.0293255119
1262,0.0293255119
1263,0.0391006832
1264,0.0488758516
1265,0.0586510229
1266,0.0782013654
1267,0.0879765415
1268,0.0879765415
1269,0.0879765415
1270,0.1075268864
1271,0.1270772218
1272,0.1564027309
1273,0.1368523955
1274,0.1270772218
1275,0.1466275596
1276,0.1564027309
1277,0.1466275596
1278,0.1368523955
1279,0.1466275596
1280,0.1857282543
1281,0.1857282543
1282,0.1661779165
1283,0.1661779165
1284,0.1564027309
1285,0.1759530782
1286,0.1759530782
1287,0.1466275596
1288,0.1368523955
1289,0.1466275596
1290,0.1661779165
1291,0.1661779165
1292,0.1466275596
1293,0.1368523955
1294,0.1173020482
1295,0.1173020482
1296,0.1368523955
1297,0.1466275596
1298,0.1368523955
1299,0.1270772218
1300,0.1270772218
1301,0.1173020482
1302,0.1173020482
1303,0.0977517032
1304,0.0879765415
1305,0.0782013654
1306,0.0782013654
1307,0.0684261989
1308,0.0684261989
1309,0.0586510229
1310,0.0586510229
1311,0.0684261989
1312,0.0684261989
1313,0.0684261989
1314,0.0684261989
1315,0.0684261989
1316,0.0586510229
1317,0.0586510229
1318,0.0684261989
1319,0.0684261989
1320,0.0684261989
1321,0.0586510229
1322,0.0488758516
1323,0.0586510229
1324,0.0586510229
1325,0.0586510229
1326,0.0488758516
1327,0.0488758516
1328,0.0586510229
1329,0.0586510229
1330,0.0782013654
1331,0.0684261989
1332,0.0684261989
1333,0.0684261989
1334,0.0586510229
1335,0.0879765415
1336,0.0879765415
1337,0.0782013654
1338,0.0684261989
1339,0.0782013654
1340,0.0879765415
1341,0.1075268864
1342,0.1173020482
1343,0.0977517032
1344,0.0879765415
1345,0.0782013654
1346,0.0782013654
1347,0.1075268864
1348,0.1173020482
1349,0.1075268864
1350,0.0977517032
1351,0.0977517032
1352,0.0879765415
1353,0.0879765415
1354,0.1173020482
1355,0.1075268864
1356,0.1173020482
1357,0.1466275596
1358,0.1368523955
1359,0.1564027309
1360,0.1368523955
1361,0.1075268864
1362,0.1075268864
1363,0.0879765415
1364,0.1173020482
1365,0.0879765415
1366,0.0977517032
1367,0.0879765415
1368,0.0684261989
1369,0.0684261989
1370,0.0684261989
1371,0.0586510229
1372,0.0488758516
1373,0.0391006832
1374,0.0391006832
1375,0.0293255119
1376,0.0293255119
1377,0.0293255119
1378,0.0195503416
1379,0.0195503416
1380,0.0195503416
1381,0.0195503416
1382,0.0195503416
1383,0.0195503416
1384,0.0293255119
1385,0.0391006832
1386,0.0293255119
1387,0.0293255119
1388,0.0293255119
1389,0.0391006832
1390,0.0586510229
1391,0.0586510229
1392,0.0782013654
1393,0.0684261989
1394,0.0782013654
1395,0.0977517032
1396,0.0977517032
1397,0.1075268864
1398,0.1368523955
1399,0.1661779165
1400,0.1857282543
1401,0.1661779165
1402,0.1759530782
1403,0.1857282543
1404,0.1857282543
1405,0.1759530782
1406,0.1955034160
1407,0.1955034160
1408,0.1759530782
1409,0.2052785873
1410,0.2346040964
1411,0.2737047910
1412,0.2541544437
1413,0.2443792819
1414,0.2248289346
1415,0.2052785873
1416,0.2248289346
1417,0.2150537729
1418,0.1857282543
1419,0.1857282543
1420,0.1955034160
1421,0.1661779165
1422,0.1466275596
1423,0.1368523955
1424,0.1270772218
1425,0.1368523955
1426,0.1466275596
1427,0.1466275596
1428,0.1270772218
1429,0.1173020482
1430,0.1075268864
1431,0.1270772218
1432,0.1368523955
1433,0.1075268864
1434,0.0977517032
1435,0.0879765415
1436,0.0879765415
1437,0.0879765415
1438,0.0879765415
1439,0.0879765415
1440,0.0684261989
1441,0.0879765415
1442,0.0879765415
1443,0.0879765415
1444,0.0977517032
1445,0.0879765415
1446,0.0977517032
1447,0.0977517032
1448,0.0879765415
1449,0.0782013654
1450,0.0782013654
1451,0.0782013654
1452,0.0684261989
1453,0.0586510229
1454,0.0488758516
1455,0.0586510229
1456,0.0684261989
1457,0.0879765415
1458,0.0782013654
1459,0.0684261989
1460,0.0684261989
1461,0.0684261989
1462,0.0586510229
1463,0.0782013654
1464,0.0879765415
1465,0.1173020482
1466,0.1466275596
1467,0.1368523955
1468,0.1661779165
1469,0.1466275596
1470,0.1270772218
1471,0.1173020482
1472,0.0977517032
1473,0.0977517032
1474,0.0977517032
1475,0.0782013654
1476,0.0879765415
1477,0.0879765415
1478,0.0977517032
1479,0.1173020482
1480,0.1759530782
1481,0.1564027309
1482,0.1857282543
1483,0.1661779165
1484,0.1466275596
1485,0.1466275596
1486,0.1759530782
1487,0.2150537729
1488,0.1955034160
1489,0.2150537729
1490,0.2346040964
1491,0.2052785873
1492,0.1661779165
1493,0.2150537729
1494,0.1955034160
1495,0.1955034160
1496,0.1857282543
1497,0.1661779165
1498,0.1368523955
1499,0.1270772218
1500,0.1173020482
1501,0.0977517032
1502,0.0879765415
1503,0.0879765415
1504,0.0879765415
1505,0.0879765415
1506,0.0684261989
1507,0.0586510229
1508,0.0488758516
1509,0.0391006832
1510,0.0391006832
1511,0.0293255119
1512,0.0293255119
1513,0.0293255119
1514,0.0391006832
1515,0.0488758516
1516,0.0684261989
1517,0.0879765415
1518,0.0879765415
1519,0.0977517032
1520,0.0879765415
1521,0.0977517032
1522,0.1075268864
1523,0.0879765415
1524,0.0782013654
1525,0.0782013654
1526,0.0782013654
1527,0.0879765415
1528,0.1173020482
1529,0.1466275596
1530,0.1857282543
1531,0.1857282543
1532,0.1759530782
1533,0.2150537729
1534,0.2052785873
1535,0.2052785873
1536,0.2052785873
1537,0.1955034160
1538,0.2052785873
1539,0.2150537729
1540,0.2541544437
1541,0.2737047910
1542,0.2639296054
1543,0.2346040964
1544,0.2443792819
1545,0.2834799575
1546,0.3030303001
1547,0.2737047910
1548,0.2346040964
1549,0.2052785873
1550,0.1955034160
1551,0.2052785873
1552,0.1857282543
1553,0.2052785873
1554,0.1955034160
1555,0.2150537729
1556,0.2248289346
1557,0.2150537729
1558,0.2052785873
1559,0.1857282543
1560,0.1955034160
1561,0.1857282543
1562,0.2150537729
1563,0.2052785873
1564,0.1955034160
1565,0.1857282543
1566,0.1955034160
1567,0.1955034160
1568,0.1661779165
1569,0.1368523955
1570,0.1270772218
1571,0.1173020482
1572,0.1173020482
1573,0.1173020482
1574,0.1075268864
1575,0.0977517032
1576,0.0879765415
1577,0.0879765415
1578,0.0879765415
1579,0.0879765415
1580,0.0977517032
1581,0.0977517032
1582,0.1075268864
1583,0.1173020482
1584,0.1173020482
1585,0.1075268864
1586,0.0782013654
1587,0.0782013654
1588,0.0782013654
1589,0.0684261989
1590,0.0684261989
1591,0.0684261989
1592,0.0782013654
1593,0.0879765415
1594,0.0782013654
1595,0.0782013654
1596,0.0782013654
1597,0.0977517032
1598,0.0977517032
1599,0.0879765415
1600,0.0782013654
1601,0.0977517032
1602,0.0977517032
1603,0.0782013654
1604,0.0684261989
1605,0.0684261989
1606,0.0684261989
1607,0.0782013654
1608,0.0684261989
1609,0.0879765415
1610,0.1173020482
1611,0.1173020482
1612,0.1075268864
1613,0.0977517032
1614,0.0977517032
1615,0.1075268864
1616,0.1075268864
1617,0.1466275596
1618,0.1270772218
1619,0.1466275596
1620,0.1368523955
1621,0.2150537729
1622,0.3030303001
1623,0.3225806236
1624,0.3323558330
1625,0.3421309947
1626,0.3812316703
1627,0.3714565038
1628,0.3910068321
1629,0.3910068321
1630,0.4789833545
1631,0.4496578693
1632,0.3616813421
1633,0.2932551193
1634,0.2346040964
1635,0.1955034160
1636,0.1564027309
1637,0.1368523955
1638,0.1173020482
1639,0.0977517032
1640,0.0782013654
1641,0.0782013654
1642,0.0586510229
1643,0.0488758516
1644,0.0488758516
1645,0.0391006832
1646,0.0684261989
1647,0.0782013654
1648,0.0684261989
1649,0.0586510229
1650,0.0586510229
1651,0.0586510229
1652,0.0488758516
1653,0.0488758516
1654,0.0488758516
1655,0.0391006832
1656,0.0488758516
1657,0.0586510229
1658,0.0879765415
1659,0.0879765415
1660,0.0879765415
1661,0.1075268864
1662,0.1759530782
1663,0.2150537729
1664,0.1955034160
1665,0.2150537729
1666,0.2248289346
1667,0.2541544437
1668,0.3030303001
1669,0.2541544437
1670,0.2443792819
1671,0.2541544437
1672,0.2248289346
1673,0.2150537729
1674,0.1955034160
1675,0.2052785873
1676,0.1857282543
1677,0.2052785873
1678,0.2150537729
1679,0.2150537729
1680,0.2150537729
1681,0.1955034160
1682,0.1857282543
1683,0.1955034160
1684,0.2248289346
1685,0.2052785873
1686,0.1759530782
1687,0.1661779165
1688,0.1857282543
1689,0.1661779165
1690,0.1857282543
1691,0.1857282543
1692,0.1759530782
1693,0.1955034160
1694,0.2150537729
1695,0.1955034160
1696,0.1857282543
1697,0.1759530782
1698,0.1759530782
1699,0.1661779165
1700,0.1661779165
1701,0.1466275596
1702,0.1368523955
1703,0.1368523955
1704,0.1466275596
1705,0.1270772218
1706,0.1173020482
1707,0.1075268864
1708,0.0977517032
1709,0.1173020482
1710,0.1173020482
1711,0.1075268864
1712,0.1075268864
1713,0.1270772218
1714,0.1270772218
1715,0.1173020482
1716,0.0977517032
1717,0.0879765415
1718,0.0977517032
1719,0.0977517032
1720,0.0782013654
1721,0.0684261989
1722,0.0684261989
1723,0.0684261989
1724,0.0684261989
1725,0.0586510229
1726,0.0684261989
1727,0.0879765415
1728,0.0684261989
1729,0.0782013654
1730,0.0684261989
1731,0.0684261989
1732,0.0684261989
1733,0.0684261989
1734,0.0586510229
1735,0.0684261989
1736,0.0684261989
1737,0.0586510229
1738,0.0782013654
1739,0.0586510229
1740,0.0684261989
1741,0.0977517032
1742,0.0782013654
1743,0.1075268864
1744,0.0879765415
1745,0.0782013654
1746,0.0782013654
1747,0.0879765415
1748,0.0879765415
1749,0.0782013654
1750,0.0684261989
1751,0.0684261989
1752,0.0782013654
1753,0.0782013654
1754,0.0782013654
1755,0.0684261989
1756,0.0879765415
1757,0.1075268864
1758,0.1173020482
1759,0.1075268864
1760,0.1173020482
1761,0.1270772218
1762,0.1075268864
1763,0.1173020482
1764,0.1661779165
1765,0.1857282543
1766,0.1955034160
1767,0.1955034160
1768,0.2248289346
1769,0.2248289346
1770,0.1955034160
1771,0.1759530782
1772,0.1857282543
1773,0.1564027309
1774,0.1466275596
1775,0.1368523955
1776,0.1075268864
1777,0.0879765415
1778,0.0684261989
1779,0.0586510229
1780,0.0586510229
1781,0.0586510229
1782,0.0586510229
1783,0.0488758516
1784,0.0391006832
1785,0.0391006832
1786,0.0391006832
1787,0.0391006832
1788,0.0293255119
1789,0.0293255119
1790,0.0586510229
1791,0.0684261989
1792,0.0684261989
1793,0.0684261989
1794,0.0782013654
1795,0.0977517032
1796,0.0977517032
1797,0.1075268864
1798,0.1173020482
1799,0.1173020482
1800,0.1075268864
1801,0.1368523955
1802,0.1564027309
1803,0.1564027309
1804,0.1661779165
1805,0.1661779165
1806,0.1466275596
1807,0.1466275596
1808,0.1857282543
1809,0.2248289346
1810,0.2443792819
1811,0.2932551193
1812,0.2639296054
1813,0.2443792819
1814,0.2639296054
1815,0.2541544437
1816,0.2248289346
1817,0.2052785873
1818,0.2150537729
1819,0.2346040964
1820,0.2443792819
1821,0.2541544437
1822,0.2443792819
1823,0.2541544437
1824,0.2834799575
1825,0.3616813421
1826,0.3519061565
1827,0.3030303001
1828,0.2932551193
1829,0.2834799575
1830,0.2834799575
1831,0.2639296054
1832,0.2346040964
1833,0.2150537729
1834,0.2150537729
1835,0.1955034160
1836,0.1759530782
1837,0.1661779165
1838,0.1466275596
1839,0.1270772218
1840,0.1075268864
1841,0.0977517032
1842,0.0782013654
1843,0.0879765415
1844,0.0684261989
1845,0.0879765415
1846,0.0782013654
1847,0.0879765415
1848,0.0977517032
1849,0.0879765415
1850,0.0879765415
1851,0.0684261989
1852,0.0782013654
1853,0.0879765415
1854,0.0879765415
1855,0.0977517032
1856,0.0782013654
1857,0.0684261989
1858,0.0684261989
1859,0.0684261989
1860,0.0782013654
1861,0.0684261989
1862,0.0586510229
1863,0.0586510229
1864,0.0488758516
1865,0.0488758516
1866,0.0488758516
1867,0.0488758516
1868,0.0586510229
1869,0.0684261989
1870,0.0977517032
1871,0.0977517032
1872,0.1075268864
1873,0.1075268864
1874,0.1270772218
1875,0.1270772218
1876,0.1270772218
1877,0.1466275596
1878,0.1661779165
1879,0.1564027309
1880,0.1661779165
1881,0.1564027309
1882,0.1564027309
1883,0.1857282543
1884,0.1857282543
1885,0.1564027309
1886,0.1270772218
1887,0.1270772218
1888,0.1270772218
1889,0.1564027309
1890,0.1661779165
1891,0.1466275596
1892,0.1661779165
1893,0.1564027309
1894,0.1466275596
1895,0.1173020482
1896,0.1075268864
1897,0.0977517032
1898,0.0782013654
1899,0.0782013654
1900,0.0684261989
1901,0.0782013654
1902,0.0586510229
1903,0.0586510229
1904,0.0488758516
1905,0.0391006832
1906,0.0391006832
1907,0.0293255119
1908,0.0293255119
1909,0.0195503416
1910,0.0195503416
1911,0.0195503416
1912,0.0195503416
1913,0.0391006832
1914,0.0391006832
1915,0.0488758516
1916,0.0586510229
1917,0.0586510229
1918,0.0586510229
1919,0.0488758516
1920,0.0684261989
1921,0.0782013654
1922,0.1368523955
1923,0.1466275596
1924,0.1270772218
1925,0.1661779165
1926,0.2248289346
1927,0.1955034160
1928,0.2052785873
1929,0.2248289346
1930,0.2052785873
1931,0.1857282543
1932,0.1759530782
1933,0.1661779165
1934,0.1564027309
1935,0.1564027309
1936,0.1466275596
1937,0.1661779165
1938,0.1661779165
1939,0.1466275596
1940,0.1661779165
1941,0.1466275596
1942,0.1661779165
1943,0.1564027309
1944,0.1564027309
1945,0.1564027309
1946,0.1759530782
1947,0.1955034160
1948,0.1857282543
1949,0.1955034160
1950,0.2248289346
1951,0.2248289346
1952,0.2834799575
1953,0.2834799575
1954,0.2932551193
1955,0.2932551193
1956,0.3714565038
1957,0.3323558330
1958,0.2932551193
1959,0.3030303001
1960,0.2932551193
1961,0.2834799575
1962,0.2639296054
1963,0.2443792819
1964,0.2541544437
1965,0.2248289346
1966,0.2052785873
1967,0.2150537729
1968,0.2248289346
1969,0.2248289346
1970,0.2150537729
1971,0.2150537729
1972,0.2052785873
1973,0.1857282543
1974,0.1759530782
1975,0.1564027309
1976,0.1368523955
1977,0.1270772218
1978,0.1270772218
1979,0.1075268864
1980,0.1075268864
1981,0.1173020482
1982,0.1173020482
1983,0.1075268864
1984,0.0879765415
1985,0.0879765415
1986,0.0977517032
1987,0.0879765415
1988,0.0879765415
1989,0.0782013654
1990,0.0879765415
1991,0.0879765415
1992,0.0879765415
1993,0.0879765415
1994,0.0879765415
1995,0.0782013654
1996,0.0782013654
1997,0.0684261989
1998,0.0684261989
1999,0.0586510229
2000,0.0586510229
2001,1.3000977039
2002,1.0361680984
2003,0.8406646728
2004,0.7233626842
2005,0.6647116661
2006,0.5669599056
2007,0.4692081928
2008,0.4301075458
2009,0.3714565038
2010,0.3323558330
2011,0.3030303001
2012,0.2541544437
2013,0.2541544437
2014,0.2346040964
2015,0.2346040964
2016,0.2248289346
2017,0.2150537729
2018,0.2052785873
2019,0.1857282543
2020,0.1661779165
2021,0.1466275596
2022,0.1270772218
2023,0.1270772218
2024,0.1368523955
2025,0.1466275596
2026,0.1661779165
2027,0.1857282543
2028,0.1857282543
2029,0.1857282543
2030,0.1759530782
2031,0.1857282543
2032,0.1955034160
2033,0.1857282543
2034,0.1661779165
2035,0.1564027309
2036,0.1270772218
2037,0.1173020482
2038,0.1368523955
2039,0.1270772218
2040,0.1368523955
2041,0.1173020482
2042,0.1173020482
2043,0.1173020482
2044,0.1075268864
2045,0.0977517032
2046,0.0879765415
2047,0.0782013654
2048,0.0782013654
2049,0.0782013654
2050,0.0782013654
2051,0.0782013654
2052,0.0782013654
2053,0.0782013654
2054,0.0879765415
2055,0.0879765415
2056,0.0879765415
2057,0.0879765415
2058,0.0977517032
2059,0.0977517032
2060,0.1173020482
2061,0.1368523955
2062,0.1368523955
2063,0.1466275596
2064,0.1368523955
2065,0.1368523955
2066,0.1368523955
2067,0.1368523955
2068,0.1368523955
2069,0.1270772218
2070,0.1173020482
2071,0.1270772218
2072,0.1759530782
2073,0.2346040964
2074,0.3030303001
2075,0.3225806236
2076,0.3128054618
2077,0.4203323364
2078,0.4301075458
2079,0.4789833545
2080,0.6060606002
2081,0.8406646728
2082,0.8895405769
2083,0.9384163856
2084,1.0557184219
2085,0.9090909004
2086,0.8211143493
2087,0.7233626842
2088,0.6940371513
2089,0.5865102291
2090,0.5376344203
2091,0.5474095821
2092,0.4594330310
2093,0.4203323364
2094,0.4203323364
2095,0.3616813421
2096,0.3519061565
2097,0.3128054618
2098,0.3030303001
2099,0.3030303001
2100,0.3421309947
2101,0.3323558330
2102,0.3225806236
2103,0.3128054618
2104,0.2834799575
2105,0.2443792819
2106,0.2443792819
2107,0.2150537729
2108,0.2248289346
2109,0.1857282543
2110,0.1759530782
2111,0.1759530782
2112,0.1759530782
2113,0.1564027309
2114,0.1564027309
2115,0.1759530782
2116,0.2150537729
2117,0.2248289346
2118,0.1955034160
2119,0.2052785873
2120,0.1759530782
2121,0.1759530782
2122,0.2052785873
2123,0.1857282543
2124,0.2248289346
2125,0.2248289346
2126,0.1955034160
2127,0.1955034160
2128,0.2443792819
2129,0.2834799575
2130,0.2639296054
2131,0.2248289346
2132,0.2150537729
2133,0.1857282543
2134,0.1857282543
2135,0.1955034160
2136,0.1857282543
2137,0.1857282543
2138,0.1955034160
2139,0.1759530782
2140,0.1955034160
2141,0.1857282543
2142,0.1955034160
2143,0.1759530782
2144,0.1759530782
2145,0.1564027309
2146,0.1564027309
2147,0.1564027309
2148,0.1661779165
2149,0.1564027309
2150,0.1564027309
2151,0.1759530782
2152,0.1955034160
2153,0.1955034160
2154,0.1955034160
2155,0.1857282543
2156,0.1661779165
2157,0.1466275596
2158,0.1270772218
2159,0.1173020482
2160,0.1075268864
2161,0.0977517032
2162,0.1075268864
2163,0.0977517032
2164,0.0977517032
2165,0.0977517032
2166,0.1270772218
2167,0.1270772218
2168,0.1270772218
2169,0.1173020482
2170,0.1173020482
2171,0.1270772218
2172,0.1270772218
2173,0.1270772218
2174,0.1270772218
2175,0.1466275596
2176,0.1270772218
2177,0.1368523955
2178,0.1368523955
2179,0.1466275596
2180,0.1564027309
2181,0.1564027309
2182,0.1759530782
2183,0.1759530782
2184,0.1661779165
2185,0.1955034160
2186,0.2150537729
2187,0.2150537729
2188,0.2248289346
2189,0.2150537729
2190,0.2346040964
2191,0.2443792819
2192,0.2248289346
2193,0.2346040964
2194,0.2346040964
2195,0.2834799575
2196,0.3323558330
2197,0.3910068321
2198,0.3714565038
2199,0.3323558330
2200,0.4789833545
2201,0.6060606002
2202,0.6158357620
2203,0.6060606002
2204,0.5669599056
2205,0.5180840492
2206,0.4887585639
2207,0.4496578693
2208,0.5278592109
2209,0.7331378459
2210,0.6940371513
2211,0.6647116661
2212,0.6060606002
2213,0.5962854385
2214,0.5571847438
2215,0.5083088874
2216,0.4789833545
2217,0.4692081928
2218,0.5376344203
2219,0.5767350673
2220,0.5376344203
2221,0.4985337257
2222,0.4692081928
2223,0.4496578693
2224,0.4007820129
2225,0.3519061565
2226,0.3225806236
2227,0.3225806236
2228,0.3128054618
2229,0.3128054618
2230,0.3030303001
2231,0.2834799575
2232,0.2639296054
2233,0.2443792819
2234,0.2248289346
2235,0.2150537729
2236,0.1955034160
2237,0.1857282543
2238,0.1759530782
2239,0.1661779165
2240,0.1564027309
2241,0.1466275596
2242,0.1759530782
2243,0.1661779165
2244,0.1564027309
2245,0.1368523955
2246,0.1368523955
2247,0.1368523955
2248,0.1368523955
2249,0.1466275596
2250,0.1661779165
2251,0.1661779165
2252,0.1661779165
2253,0.1955034160
2254,0.2052785873
2255,0.2052785873
2256,0.2150537729
2257,0.1955034160
2258,0.2541544437
2259,0.2932551193
2260,0.2737047910
2261,0.2541544437
2262,0.2443792819
2263,0.2248289346
2264,0.2052785873
2265,0.1955034160
2266,0.1759530782
2267,0.1661779165
2268,0.2150537729
2269,0.1955034160
2270,0.1857282543
2271,0.1955034160
2272,0.1857282543
2273,0.1857282543
2274,0.1857282543
2275,0.2052785873
2276,0.2052785873
2277,0.1955034160
2278,0.1955034160
2279,0.1955034160
2280,0.1857282543
2281,0.1857282543
2282,0.1661779165
2283,0.1564027309
2284,0.1564027309
2285,0.1466275596
2286,0.1466275596
2287,0.1368523955
2288,0.1173020482
2289,0.1075268864
2290,0.1075268864
2291,0.1173020482
2292,0.0977517032
2293,0.0977517032
2294,0.1075268864
2295,0.1075268864
2296,0.0977517032
2297,0.1270772218
2298,0.1173020482
2299,0.1075268864
2300,0.1075268864
2301,0.1075268864
2302,0.1173020482
2303,0.1173020482
2304,0.1173020482
2305,0.1270772218
2306,0.1173020482
2307,0.1466275596
2308,0.1466275596
2309,0.1564027309
2310,0.1564027309
2311,0.1759530782
2312,0.1759530782
2313,0.1661779165
2314,0.1759530782
2315,0.1759530782
2316,0.1564027309
2317,0.1466275596
2318,0.1564027309
2319,0.1564027309
2320,0.1564027309
2321,0.1661779165
2322,0.1857282543
2323,0.1857282543
2324,0.1955034160
2325,0.1759530782
2326,0.1759530782
2327,0.1955034160
2328,0.2150537729
2329,0.2443792819
2330,0.3812316703
2331,0.4203323364
2332,0.4398827075
2333,0.3714565038
2334,0.3519061565
2335,0.3616813421
2336,0.4496578693
2337,0.5767350673
2338,0.6744868278
2339,0.6353860855
2340,0.6647116661
2341,0.6451612472
2342,0.5669599056
2343,0.5180840492
2344,0.5376344203
2345,0.5571847438
2346,0.5278592109
2347,0.6353860855
2348,0.7820136547
2349,0.8015640258
2350,0.8406646728
2351,0.8699902534
2352,0.8406646728
2353,0.7233626842
2354,0.6842619895
2355,0.6256109237
2356,0.5278592109
2357,0.4985337257
2358,0.4985337257
2359,0.4887585639
2360,0.4398827075
2361,0.4007820129
2362,0.3616813421
2363,0.3519061565
2364,0.4007820129
2365,0.3910068321
2366,0.3225806236
2367,0.3421309947
2368,0.4105571746
2369,0.4789833545
2370,0.4594330310
2371,0.4007820129
2372,0.4007820129
2373,0.4105571746
2374,0.4496578693
2375,0.4789833545
2376,0.4398827075
2377,0.3910068321
2378,0.3616813421
2379,0.3812316703
2380,0.3910068321
2381,0.3616813421
2382,0.3225806236
2383,0.2834799575
2384,0.2541544437
2385,0.2443792819
2386,0.2443792819
2387,0.2248289346
2388,0.2052785873
2389,0.1857282543
2390,0.1955034160
2391,0.1857282543
2392,0.1466275596
2393,0.1368523955
2394,0.1564027309
2395,0.1857282543
2396,0.2052785873
2397,0.2052785873
2398,0.1857282543
2399,0.1759530782
2400,0.2248289346
2401,0.2737047910
2402,0.2541544437
2403,0.2737047910
2404,0.2639296054
2405,0.2443792819
2406,0.2346040964
2407,0.2346040964
2408,0.2248289346
2409,0.2248289346
2410,0.2052785873
2411,0.1857282543
2412,0.1857282543
2413,0.1857282543
2414,0.1955034160
2415,0.1857282543
2416,0.1759530782
2417,0.1759530782
2418,0.1857282543
2419,0.2150537729
2420,0.2052785873
2421,0.1857282543
2422,0.1759530782
2423,0.1857282543
2424,0.2052785873
2425,0.1857282543
2426,0.1759530782
2427,0.1661779165
2428,0.1466275596
2429,0.1368523955
2430,0.1368523955
2431,0.1564027309
2432,0.1368523955
2433,0.1368523955
2434,0.1270772218
2435,0.1368523955
2436,0.1368523955
2437,0.1368523955
2438,0.1368523955
2439,0.1173020482
2440,0.1173020482
2441,0.1173020482
2442,0.1173020482
2443,0.1368523955
2444,0.1173020482
2445,0.1270772218
2446,0.1173020482
2447,0.1270772218
2448,0.1270772218
2449,0.1173020482
2450,0.1270772218
2451,0.1466275596
2452,0.1368523955
2453,0.1368523955
2454,0.1466275596
2455,0.1564027309
2456,0.1759530782
2457,0.1857282543
2458,0.1759530782
2459,0.1857282543
2460,0.1857282543
2461,0.1857282543
2462,0.1857282543
2463,0.1857282543
2464,0.2052785873
2465,0.1857282543
2466,0.1857282543
2467,0.1955034160
2468,0.2248289346
2469,0.2639296054
2470,0.2834799575
2471,0.2834799575
2472,0.3323558330
2473,0.4203323364
2474,0.5083088874
2475,0.6353860855
2476,0.8308895111
2477,0.9872922897
2478,0.9775171279
2479,0.8895405769
2480,0.8993157386
2481,1.0850440216
2482,1.1827956390
2483,1.1045943498
2484,1.0263929367
2485,0.8993157386
2486,1.1045943498
2487,1.1045943498
2488,1.0654937028
2489,1.4076246261
2490,1.5933528900
2491,1.4369501113
2492,1.5151515007
2493,1.4662756919
2494,1.2903225421
2495,1.1534701585
2496,0.9970674514
2497,0.8797654151
2498,0.7233626842
2499,0.6158357620
2500,0.5278592109
2501,0.5180840492
2502,0.4789833545
2503,0.4594330310
2504,0.4203323364
2505,0.3421309947
2506,0.3421309947
2507,0.3030303001
2508,0.2639296054
2509,0.2443792819
2510,0.2150537729
2511,0.2052785873
2512,0.1857282543
2513,0.1759530782
2514,0.1564027309
2515,0.1661779165
2516,0.1564027309
2517,0.1466275596
2518,0.1466275596
2519,0.1466275596
2520,0.1564027309
2521,0.1564027309
2522,0.2052785873
2523,0.1955034160
2524,0.2443792819
2525,0.2639296054
2526,0.2639296054
2527,0.2346040964
2528,0.2052785873
2529,0.2150537729
2530,0.1955034160
2531,0.1857282543
2532,0.1759530782
2533,0.1759530782
2534,0.1857282543
2535,0.1759530782
2536,0.1661779165
2537,0.1466275596
2538,0.1759530782
2539,0.1857282543
2540,0.1857282543
2541,0.1661779165
2542,0.1564027309
2543,0.1466275596
2544,0.1564027309
2545,0.1759530782
2546,0.1661779165
2547,0.1466275596
2548,0.1368523955
2549,0.1368523955
2550,0.1270772218
2551,0.1173020482
2552,0.1368523955
2553,0.1466275596
2554,0.1564027309
2555,0.1564027309
2556,0.1466275596
2557,0.1173020482
2558,0.1173020482
2559,0.1075268864
2560,0.1173020482
2561,0.0977517032
2562,0.1075268864
2563,0.1075268864
2564,0.0977517032
2565,0.0977517032
2566,0.0879765415
2567,0.0879765415
2568,0.0879765415
2569,0.0879765415
2570,0.0977517032
2571,0.0977517032
2572,0.0879765415
2573,0.0879765415
2574,0.0879765415
2575,0.0879765415
2576,0.0879765415
2577,0.0879765415
2578,0.0879765415
2579,0.0977517032
2580,0.0879765415
2581,0.0782013654
2582,0.0879765415
2583,0.0879765415
2584,0.0879765415
2585,0.0879765415
2586,0.0977517032
2587,0.0977517032
2588,0.1075268864
2589,0.1075268864
2590,0.1173020482
2591,0.1270772218
2592,0.1270772218
2593,0.1368523955
2594,0.1368523955
2595,0.1466275596
2596,0.1466275596
2597,0.1466275596
2598,0.1564027309
2599,0.1759530782
2600,0.1759530782
2601,0.1759530782
2602,0.1955034160
2603,0.1955034160
2604,0.1857282543
2605,0.1857282543
2606,0.1955034160
2607,0.2443792819
2608,0.2737047910
2609,0.3030303001
2610,0.3616813421
2611,0.4301075458
2612,0.5278592109
2613,0.4887585639
2614,0.4985337257
2615,0.5669599056
2616,0.8015640258
2617,0.7917888641
2618,1.0850440216
2619,0.9872922897
2620,0.8797654151
2621,0.8015640258
2622,0.6940371513
2623,0.6158357620
2624,0.5474095821
2625,0.5571847438
2626,0.7233626842
2627,0.5962854385
2628,0.6647116661
2629,0.8895405769
2630,0.8797654151
2631,0.7526881694
2632,0.7135874748
2633,0.6842619895
2634,0.6158357620
2635,0.5474095821
2636,0.5083088874
2637,0.4398827075
2638,0.3910068321
2639,0.3616813421
2640,0.3323558330
2641,0.3812316703
2642,0.4203323364
2643,0.4496578693
2644,0.3910068321
2645,0.3714565038
2646,0.3323558330
2647,0.3030303001
2648,0.2932551193
2649,0.2932551193
2650,0.2834799575
2651,0.2541544437
2652,0.2541544437
2653,0.2541544437
2654,0.2834799575
2655,0.2737047910
2656,0.2346040964
2657,0.2150537729
2658,0.2052785873
2659,0.1857282543
2660,0.1564027309
2661,0.1857282543
2662,0.2150537729
2663,0.2541544437
2664,0.3030303001
2665,0.3616813421
2666,0.3616813421
2667,0.3323558330
2668,0.3128054618
2669,0.2737047910
2670,0.2737047910
2671,0.2737047910
2672,0.3030303001
2673,0.2932551193
2674,0.2834799575
2675,0.2639296054
2676,0.2443792819
2677,0.2150537729
2678,0.1955034160
2679,0.1857282543
2680,0.2052785873
2681,0.1857282543
2682,0.1661779165
2683,0.1759530782
2684,0.1955034160
2685,0.1955034160
2686,0.1955034160
2687,0.1955034160
2688,0.2052785873
2689,0.2052785873
2690,0.2346040964
2691,0.2248289346
2692,0.2248289346
2693,0.2346040964
2694,0.2150537729
2695,0.2346040964
2696,0.2346040964
2697,0.2150537729
2698,0.2052785873
2699,0.2150537729
2700,0.1955034160
2701,0.1857282543
2702,0.1759530782
2703,0.1759530782
2704,0.1661779165
2705,0.1857282543
2706,0.1759530782
2707,0.1661779165
2708,0.1466275596
2709,0.1368523955
2710,0.1368523955
2711,0.1270772218
2712,0.1368523955
2713,0.1173020482
2714,0.1075268864
2715,0.1173020482
2716,0.1173020482
2717,0.0977517032
2718,0.0977517032
2719,0.0977517032
2720,0.0977517032
2721,0.1173020482
2722,0.1075268864
2723,0.1075268864
2724,0.0977517032
2725,0.1075268864
2726,0.1075268864
2727,0.1075268864
2728,0.1173020482
2729,0.1173020482
2730,0.1173020482
2731,0.1270772218
2732,0.1368523955
2733,0.1368523955
2734,0.1466275596
2735,0.1466275596
2736,0.1564027309
2737,0.1661779165
2738,0.1759530782
2739,0.1661779165
2740,0.1661779165
2741,0.1857282543
2742,0.1955034160
2743,0.2052785873
2744,0.2346040964
2745,0.2932551193
2746,0.3616813421
2747,0.3714565038
2748,0.3714565038
2749,0.4594330310
2750,0.5767350673
2751,0.5865102291
2752,0.6353860855
2753,0.6940371513
2754,0.8993157386
2755,0.9384163856
2756,0.8895405769
2757,0.8406646728
2758,0.7624633312
2759,0.8015640258
2760,0.9384163856
2761,1.0654937028
2762,0.9872922897
2763,1.1143695116
2764,1.3391984701
2765,1.2121212482
2766,1.0850440216
2767,1.0654937028
2768,0.8895405769
2769,0.7429130077
2770,0.6744868278
2771,0.6158357620
2772,0.5376344203
2773,0.4594330310
2774,0.4301075458
2775,0.4105571746
2776,0.4007820129
2777,0.4398827075
2778,0.4398827075
2779,0.4007820129
2780,0.3519061565
2781,0.3323558330
2782,0.3225806236
2783,0.3030303001
2784,0.2834799575
2785,0.2346040964
2786,0.2052785873
2787,0.1955034160
2788,0.1857282543
2789,0.1759530782
2790,0.1564027309
2791,0.1564027309
2792,0.1661779165
2793,0.2052785873
2794,0.2248289346
2795,0.2150537729
2796,0.1955034160
2797,0.2052785873
2798,0.2639296054
2799,0.2932551193
2800,0.2639296054
2801,0.2346040964
2802,0.2052785873
2803,0.2346040964
2804,0.2150537729
2805,0.2052785873
2806,0.2052785873
2807,0.2052785873
2808,0.2052785873
2809,0.1955034160
2810,0.1857282543
2811,0.1955034160
2812,0.1955034160
2813,0.1857282543
2814,0.2150537729
2815,0.2346040964
2816,0.2346040964
2817,0.2052785873
2818,0.2346040964
2819,0.2052785873
2820,0.1857282543
2821,0.1857282543
2822,0.2052785873
2823,0.1857282543
2824,0.1857282543
2825,0.1857282543
2826,0.2052785873
2827,0.2346040964
2828,0.2443792819
2829,0.2248289346
2830,0.2248289346
2831,0.2541544437
2832,0.2346040964
2833,0.2443792819
2834,0.2541544437
2835,0.2443792819
2836,0.2346040964
2837,0.2248289346
2838,0.1955034160
2839,0.2248289346
2840,0.2150537729
2841,0.1955034160
2842,0.2052785873
2843,0.1857282543
2844,0.1857282543
2845,0.1759530782
2846,0.1564027309
2847,0.1564027309
2848,0.1564027309
2849,0.1466275596
2850,0.1368523955
2851,0.1270772218
2852,0.1270772218
2853,0.1075268864
2854,0.1173020482
2855,0.1270772218
2856,0.1270772218
2857,0.1173020482
2858,0.1368523955
2859,0.1368523955
2860,0.1368523955
2861,0.1270772218
2862,0.1466275596
2863,0.1466275596
2864,0.1466275596
2865,0.1661779165
2866,0.1955034160
2867,0.1955034160
2868,0.1955034160
2869,0.1857282543
2870,0.1661779165
2871,0.1564027309
2872,0.1564027309
2873,0.1759530782
2874,0.2150537729
2875,0.2737047910
2876,0.3812316703
2877,0.4007820129
2878,0.3812316703
2879,0.4692081928
2880,0.5767350673
2881,0.5278592109
2882,0.6158357620
2883,0.6158357620
2884,0.5376344203
2885,0.6353860855
2886,0.9579667091
2887,0.9872922897
2888,0.9090909004
2889,0.8308895111
2890,0.7624633312
2891,0.7526881694
2892,0.7917888641
2893,0.7429130077
2894,0.6256109237
2895,0.5669599056
2896,0.7233626842
2897,0.7038123130
2898,0.6842619895
2899,0.8504399299
2900,0.8797654151
2901,0.7722384929
2902,0.7526881694
2903,0.7526881694
2904,0.6744868278
2905,0.6744868278
2906,0.5962854385
2907,0.5278592109
2908,0.4692081928
2909,0.4301075458
2910,0.3812316703
2911,0.3616813421
2912,0.3421309947
2913,0.3225806236
2914,0.2932551193
2915,0.2737047910
2916,0.2639296054
2917,0.2346040964
2918,0.2248289346
2919,0.1955034160
2920,0.1759530782
2921,0.1564027309
2922,0.1466275596
2923,0.1368523955
2924,0.1368523955
2925,0.1270772218
2926,0.1173020482
2927,0.1270772218
2928,0.1368523955
2929,0.1270772218
2930,0.1270772218
2931,0.1270772218
2932,0.1270772218
2933,0.1270772218
2934,0.1173020482
2935,0.1368523955
2936,0.1368523955
2937,0.2052785873
2938,0.1955034160
2939,0.1955034160
2940,0.2052785873
2941,0.2346040964
2942,0.2443792819
2943,0.2541544437
2944,0.2443792819
2945,0.2150537729
2946,0.2150537729
2947,0.2150537729
2948,0.2150537729
2949,0.2052785873
2950,0.2052785873
2951,0.1955034160
2952,0.2052785873
2953,0.1857282543
2954,0.2052785873
2955,0.2052785873
2956,0.2052785873
2957,0.1955034160
2958,0.1759530782
2959,0.1661779165
2960,0.1759530782
2961,0.1759530782
2962,0.1955034160
2963,0.1759530782
2964,0.1759530782
2965,0.1661779165
2966,0.1564027309
2967,0.1564027309
2968,0.1564027309
2969,0.1466275596
2970,0.1466275596
2971,0.1270772218
2972,0.1173020482
2973,0.1270772218
2974,0.1173020482
2975,0.1075268864
2976,0.0977517032
2977,0.1270772218
2978,0.1466275596
2979,0.1466275596
2980,0.1564027309
2981,0.1564027309
2982,0.1368523955
2983,0.1270772218
2984,0.1270772218
2985,0.1270772218
2986,0.1270772218
2987,0.1173020482
2988,0.1173020482
2989,0.1075268864
2990,0.1270772218
2991,0.1075268864
2992,0.1173020482
2993,0.1173020482
2994,0.1173020482
2995,0.1075268864
2996,0.1173020482
2997,0.1173020482
2998,0.1270772218
2999,0.1270772218
3000,0.1368523955
3001,0.9286412239
3002,0.7722384929
3003,0.6549364089
3004,0.5669599056
3005,0.4789833545
3006,0.4105571746
3007,0.3421309947
3008,0.3225806236
3009,0.2932551193
3010,0.2932551193
3011,0.2932551193
3012,0.2834799575
3013,0.2541544437
3014,0.2248289346
3015,0.2248289346
3016,0.2639296054
3017,0.2639296054
3018,0.2346040964
3019,0.2834799575
3020,0.3128054618
3021,0.3225806236
3022,0.3128054618
3023,0.3225806236
3024,0.2932551193
3025,0.2932551193
3026,0.3323558330
3027,0.3128054618
3028,0.3616813421
3029,0.4985337257
3030,0.5474095821
3031,0.5278592109
3032,0.5962854385
3033,0.5865102291
3034,0.5767350673
3035,0.5083088874
3036,0.5083088874
3037,0.5180840492
3038,0.4594330310
3039,0.3812316703
3040,0.3421309947
3041,0.2932551193
3042,0.2834799575
3043,0.2932551193
3044,0.2541544437
3045,0.2443792819
3046,0.2541544437
3047,0.2639296054
3048,0.2346040964
3049,0.2150537729
3050,0.2052785873
3051,0.1955034160
3052,0.1759530782
3053,0.1564027309
3054,0.1661779165
3055,0.1466275596
3056,0.1564027309
3057,0.1564027309
3058,0.1661779165
3059,0.1661779165
3060,0.1564027309
3061,0.1661779165
3062,0.1661779165
3063,0.1857282543
3064,0.1759530782
3065,0.1661779165
3066,0.1661779165
3067,0.1857282543
3068,0.1857282543
3069,0.1661779165
3070,0.1564027309
3071,0.1564027309
3072,0.1564027309
3073,0.1466275596
3074,0.1466275596
3075,0.1564027309
3076,0.1564027309
3077,0.1955034160
3078,0.1759530782
3079,0.1759530782
3080,0.1661779165
3081,0.1466275596
3082,0.1466275596
3083,0.1466275596
3084,0.1564027309
3085,0.1466275596
3086,0.1564027309
3087,0.1857282543
3088,0.1857282543
3089,0.2052785873
3090,0.2541544437
3091,0.3128054618
3092,0.2834799575
3093,0.2639296054
3094,0.2443792819
3095,0.2248289346
3096,0.2150537729
3097,0.1857282543
3098,0.1661779165
3099,0.1661779165
3100,0.1759530782
3101,0.1661779165
3102,0.1759530782
3103,0.1564027309
3104,0.1564027309
3105,0.1466275596
3106,0.1661779165
3107,0.1368523955
3108,0.1368523955
3109,0.1466275596
3110,0.1564027309
3111,0.1759530782
3112,0.1661779165
3113,0.1661779165
3114,0.1661779165
3115,0.1661779165
3116,0.1466275596
3117,0.1368523955
3118,0.1368523955
3119,0.1173020482
3120,0.1075268864
3121,0.1173020482
3122,0.1173020482
3123,0.1173020482
3124,0.1368523955
3125,0.1173020482
3126,0.1075268864
3127,0.1270772218
3128,0.1270772218
3129,0.1368523955
3130,0.1270772218
3131,0.1270772218
3132,0.1173020482
3133,0.1466275596
3134,0.2052785873
3135,0.1955034160
3136,0.1955034160
3137,0.1857282543
3138,0.2150537729
3139,0.2052785873
3140,0.1955034160
3141,0.2052785873
3142,0.2443792819
3143,0.2639296054
3144,0.2639296054
3145,0.2639296054
3146,0.2346040964
3147,0.2248289346
3148,0.2248289346
3149,0.2541544437
3150,0.2834799575
3151,0.2737047910
3152,0.2737047910
3153,0.2932551193
3154,0.2639296054
3155,0.3128054618
3156,0.3519061565
3157,0.3910068321
3158,0.3910068321
3159,0.3812316703
3160,0.3616813421
3161,0.3519061565
3162,0.3421309947
3163,0.3323558330
3164,0.3030303001
3165,0.2932551193
3166,0.2639296054
3167,0.2443792819
3168,0.2834799575
3169,0.2834799575
3170,0.3030303001
3171,0.2834799575
3172,0.3030303001
3173,0.2932551193
3174,0.2932551193
3175,0.2639296054
3176,0.2639296054
3177,0.2639296054
3178,0.2346040964
3179,0.1955034160
3180,0.1857282543
3181,0.1759530782
3182,0.1857282543
3183,0.1759530782
3184,0.1759530782
3185,0.1564027309
3186,0.1564027309
3187,0.1759530782
3188,0.1759530782
3189,0.2346040964
3190,0.2150537729
3191,0.2052785873
3192,0.1857282543
3193,0.1759530782
3194,0.1759530782
3195,0.1759530782
3196,0.1759530782
3197,0.2052785873
3198,0.1955034160
3199,0.1857282543
3200,0.1759530782
3201,0.1661779165
3202,0.1564027309
3203,0.1466275596
3204,0.1759530782
3205,0.1857282543
3206,0.2150537729
3207,0.1955034160
3208,0.1857282543
3209,0.2150537729
3210,0.2443792819
3211,0.2346040964
3212,0.2346040964
3213,0.2346040964
3214,0.2443792819
3215,0.2346040964
3216,0.2150537729
3217,0.2150537729
3218,0.2052785873
3219,0.2052785873
3220,0.2248289346
3221,0.2346040964
3222,0.2639296054
3223,0.2541544437
3224,0.2443792819
3225,0.2346040964
3226,0.2443792819
3227,0.2248289346
3228,0.2346040964
3229,0.2346040964
3230,0.2150537729
3231,0.1857282543
3232,0.1857282543
3233,0.1661779165
3234,0.1564027309
3235,0.1564027309
3236,0.1466275596
3237,0.1564027309
3238,0.1564027309
3239,0.1466275596
3240,0.1661779165
3241,0.2737047910
3242,0.2346040964
3243,0.2052785873
3244,0.2052785873
3245,0.1759530782
3246,0.1759530782
3247,0.1661779165
3248,0.1466275596
3249,0.1368523955
3250,0.1466275596
3251,0.1564027309
3252,0.1466275596
3253,0.1564027309
3254,0.1368523955
3255,0.1368523955
3256,0.1270772218
3257,0.1368523955
3258,0.1270772218
3259,0.1270772218
3260,0.1270772218
3261,0.1270772218
3262,0.1270772218
3263,0.1759530782
3264,0.1661779165
3265,0.1759530782
3266,0.1955034160
3267,0.2150537729
3268,0.2541544437
3269,0.2639296054
3270,0.2541544437
3271,0.2541544437
3272,0.2443792819
3273,0.2639296054
3274,0.2541544437
3275,0.2932551193
3276,0.3030303001
3277,0.3714565038
3278,0.3714565038
3279,0.4007820129
3280,0.3910068321
3281,0.3714565038
3282,0.4203323364
3283,0.3812316703
3284,0.3421309947
3285,0.3616813421
3286,0.3616813421
3287,0.3812316703
3288,0.3323558330
3289,0.3225806236
3290,0.3421309947
3291,0.3910068321
3292,0.3812316703
3293,0.3812316703
3294,0.4301075458
3295,0.4692081928
3296,0.4594330310
3297,0.4398827075
3298,0.3714565038
3299,0.3714565038
3300,0.3714565038
3301,0.4105571746
3302,0.3910068321
3303,0.3323558330
3304,0.3225806236
3305,0.2932551193
3306,0.2639296054
3307,0.2346040964
3308,0.2346040964
3309,0.2443792819
3310,0.2248289346
3311,0.2248289346
3312,0.2150537729
3313,0.2052785873
3314,0.2052785873
3315,0.1955034160
3316,0.1759530782
3317,0.1759530782
3318,0.1857282543
3319,0.1857282543
3320,0.1759530782
3321,0.1661779165
3322,0.1661779165
3323,0.1857282543
3324,0.2248289346
3325,0.2052785873
3326,0.2052785873
3327,0.1759530782
3328,0.1955034160
3329,0.2052785873
3330,0.1857282543
3331,0.1857282543
3332,0.1955034160
3333,0.1857282543
3334,0.1661779165
3335,0.1759530782
3336,0.1661779165
3337,0.1564027309
3338,0.1466275596
3339,0.1564027309
3340,0.1466275596
3341,0.1466275596
3342,0.1564027309
3343,0.1564027309
3344,0.1564027309
3345,0.1368523955
3346,0.1270772218
3347,0.1173020482
3348,0.1075268864
3349,0.1270772218
3350,0.1173020482
3351,0.1270772218
3352,0.1270772218
3353,0.1270772218
3354,0.1270772218
3355,0.1270772218
3356,0.1564027309
3357,0.1857282543
3358,0.2052785873
3359,0.2052785873
3360,0.1955034160
3361,0.2346040964
3362,0.2248289346
3363,0.1955034160
3364,0.1759530782
3365,0.1759530782
3366,0.1759530782
3367,0.1759530782
3368,0.1955034160
3369,0.2150537729
3370,0.2052785873
3371,0.2052785873
3372,0.2346040964
3373,0.2541544437
3374,0.2248289346
3375,0.2248289346
3376,0.1955034160
3377,0.1955034160
3378,0.1759530782
3379,0.1661779165
3380,0.1564027309
3381,0.1466275596
3382,0.1661779165
3383,0.1759530782
3384,0.1661779165
3385,0.1564027309
3386,0.1564027309
3387,0.1466275596
3388,0.1466275596
3389,0.1368523955
3390,0.1270772218
3391,0.1368523955
3392,0.1270772218
3393,0.1075268864
3394,0.1075268864
3395,0.0977517032
3396,0.1173020482
3397,0.1173020482
3398,0.1466275596
3399,0.1759530782
3400,0.1661779165
3401,0.1661779165
3402,0.2052785873
3403,0.1955034160
3404,0.1955034160
3405,0.1857282543
3406,0.1857282543
3407,0.1955034160
3408,0.1857282543
3409,0.1857282543
3410,0.2346040964
3411,0.2346040964
3412,0.2443792819
3413,0.2541544437
3414,0.2346040964
3415,0.2150537729
3416,0.2443792819
3417,0.2443792819
3418,0.2443792819
3419,0.2834799575
3420,0.2932551193
3421,0.3030303001
3422,0.2932551193
3423,0.3030303001
3424,0.2834799575
3425,0.2541544437
3426,0.2932551193
3427,0.3030303001
3428,0.2737047910
3429,0.2932551193
3430,0.3030303001
3431,0.2834799575
3432,0.2639296054
3433,0.2639296054
3434,0.2932551193
3435,0.3323558330
3436,0.4007820129
3437,0.3421309947
3438,0.4887585639
3439,0.5180840492
3440,0.5180840492
3441,0.4594330310
3442,0.4692081928
3443,0.4203323364
3444,0.3910068321
3445,0.4398827075
3446,0.4007820129
3447,0.3714565038
3448,0.3519061565
3449,0.3323558330
3450,0.3030303001
3451,0.2639296054
3452,0.2443792819
3453,0.2737047910
3454,0.2834799575
3455,0.2639296054
3456,0.2248289346
3457,0.2150537729
3458,0.2248289346
3459,0.2443792819
3460,0.2443792819
3461,0.2541544437
3462,0.2443792819
3463,0.2443792819
3464,0.2150537729
3465,0.1955034160
3466,0.1955034160
3467,0.1857282543
3468,0.1955034160
3469,0.1564027309
3470,0.1564027309
3471,0.1564027309
3472,0.1661779165
3473,0.1564027309
3474,0.1857282543
3475,0.2052785873
3476,0.2052785873
3477,0.2052785873
3478,0.1955034160
3479,0.2052785873
3480,0.1857282543
3481,0.1759530782
3482,0.1564027309
3483,0.1466275596
3484,0.1564027309
3485,0.1661779165
3486,0.1661779165
3487,0.1564027309
3488,0.1564027309
3489,0.1661779165
3490,0.1466275596
3491,0.1466275596
3492,0.1564027309
3493,0.1466275596
3494,0.1368523955
3495,0.1661779165
3496,0.1759530782
3497,0.1857282543
3498,0.1955034160
3499,0.1857282543
3500,0.1759530782
3501,0.1955034160
3502,0.1955034160
3503,0.1857282543
3504,0.2248289346
3505,0.2443792819
3506,0.2541544437
3507,0.2346040964
3508,0.2541544437
3509,0.2443792819
3510,0.2541544437
3511,0.2443792819
3512,0.2248289346
3513,0.2443792819
3514,0.2052785873
3515,0.1955034160
3516,0.1759530782
3517,0.1857282543
3518,0.1955034160
3519,0.1955034160
3520,0.2052785873
3521,0.1857282543
3522,0.1564027309
3523,0.1466275596
3524,0.1564027309
3525,0.1466275596
3526,0.1368523955
3527,0.1564027309
3528,0.1661779165
3529,0.1759530782
3530,0.1955034160
3531,0.1661779165
3532,0.1661779165
3533,0.1661779165
3534,0.1466275596
3535,0.1368523955
3536,0.1270772218
3537,0.1270772218
3538,0.1075268864
3539,0.1173020482
3540,0.1173020482
3541,0.1173020482
3542,0.1075268864
3543,0.1466275596
3544,0.1466275596
3545,0.1368523955
3546,0.1270772218
3547,0.1564027309
3548,0.2248289346
3549,0.1955034160
3550,0.1857282543
3551,0.1857282543
3552,0.1661779165
3553,0.1564027309
3554,0.1564027309
3555,0.1466275596
3556,0.1564027309
3557,0.1661779165
3558,0.1955034160
3559,0.1857282543
3560,0.2248289346
3561,0.2443792819
3562,0.2248289346
3563,0.2052785873
3564,0.2150537729
3565,0.2346040964
3566,0.2443792819
3567,0.2541544437
3568,0.2443792819
3569,0.3128054618
3570,0.3225806236
3571,0.3128054618
3572,0.3519061565
3573,0.3030303001
3574,0.2639296054
3575,0.2639296054
3576,0.2834799575
3577,0.3030303001
3578,0.2932551193
3579,0.2639296054
3580,0.2541544437
3581,0.3128054618
3582,0.3519061565
3583,0.3616813421
3584,0.3616813421
3585,0.3714565038
3586,0.3714565038
3587,0.3616813421
3588,0.3225806236
3589,0.3323558330
3590,0.3030303001
3591,0.2834799575
3592,0.2541544437
3593,0.2346040964
3594,0.2346040964
3595,0.2248289346
3596,0.2443792819
3597,0.2639296054
3598,0.2639296054
3599,0.2443792819
3600,0.2639296054
3601,0.2639296054
3602,0.2443792819
3603,0.2443792819
3604,0.2639296054
3605,0.2443792819
3606,0.2639296054
3607,0.2443792819
3608,0.2150537729
3609,0.2052785873
3610,0.1955034160
3611,0.1661779165
3612,0.1661779165
3613,0.1759530782
3614,0.1955034160
3615,0.2052785873
3616,0.1759530782
3617,0.1857282543
3618,0.1759530782
3619,0.2443792819
3620,0.2932551193
3621,0.2834799575
3622,0.2639296054
3623,0.2639296054
3624,0.2639296054
3625,0.2541544437
3626,0.2248289346
3627,0.2346040964
3628,0.2346040964
3629,0.2150537729
3630,0.2150537729
3631,0.1857282543
3632,0.2052785873
3633,0.1759530782
3634,0.1661779165
3635,0.1661779165
3636,0.1564027309
3637,0.1661779165
3638,0.2346040964
3639,0.2150537729
3640,0.2052785873
3641,0.2346040964
3642,0.2346040964
3643,0.2346040964
3644,0.2346040964
3645,0.2052785873
3646,0.2052785873
3647,0.2346040964
3648,0.2150537729
3649,0.2052785873
3650,0.2639296054
3651,0.2346040964
3652,0.1955034160
3653,0.1955034160
3654,0.2150537729
3655,0.1955034160
3656,0.1955034160
3657,0.2052785873
3658,0.2052785873
3659,0.1955034160
3660,0.1955034160
3661,0.2052785873
3662,0.1857282543
3663,0.1759530782
3664,0.2052785873
3665,0.1857282543
3666,0.1564027309
3667,0.1466275596
3668,0.1564027309
3669,0.1466275596
3670,0.1466275596
3671,0.1368523955
3672,0.1173020482
3673,0.1173020482
3674,0.1173020482
3675,0.1173020482
3676,0.1075268864
3677,0.1173020482
3678,0.1270772218
3679,0.1270772218
3680,0.1075268864
3681,0.1368523955
3682,0.1466275596
3683,0.1661779165
3684,0.1759530782
3685,0.1955034160
3686,0.2150537729
3687,0.2052785873
3688,0.1955034160
3689,0.1955034160
3690,0.1955034160
3691,0.1857282543
3692,0.1857282543
3693,0.1857282543
3694,0.1759530782
3695,0.1759530782
3696,0.2052785873
3697,0.2248289346
3698,0.2248289346
3699,0.2248289346
3700,0.2248289346
3701,0.2541544437
3702,0.2346040964
3703,0.2639296054
3704,0.2639296054
3705,0.2639296054
3706,0.2443792819
3707,0.2541544437
3708,0.2443792819
3709,0.2443792819
3710,0.3030303001
3711,0.2737047910
3712,0.2737047910
3713,0.2443792819
3714,0.2639296054
3715,0.2737047910
3716,0.2541544437
3717,0.2541544437
3718,0.3910068321
3719,0.4789833545
3720,0.4496578693
3721,0.3812316703
3722,0.3714565038
3723,0.3225806236
3724,0.3421309947
3725,0.3421309947
3726,0.3714565038
3727,0.4007820129
3728,0.3910068321
3729,0.3616813421
3730,0.3421309947
3731,0.2834799575
3732,0.2737047910
3733,0.2346040964
3734,0.2541544437
3735,0.2443792819
3736,0.2346040964
3737,0.2150537729
3738,0.2052785873
3739,0.1955034160
3740,0.1759530782
3741,0.1661779165
3742,0.1564027309
3743,0.1564027309
3744,0.1661779165
3745,0.1955034160
3746,0.1955034160
3747,0.1661779165
3748,0.1661779165
3749,0.1564027309
3750,0.1564027309
3751,0.1564027309
3752,0.1466275596
3753,0.1564027309
3754,0.1661779165
3755,0.1466275596
3756,0.1564027309
3757,0.1466275596
3758,0.1368523955
3759,0.1075268864
3760,0.1368523955
3761,0.1466275596
3762,0.1661779165
3763,0.1661779165
3764,0.1759530782
3765,0.1661779165
3766,0.1759530782
3767,0.1564027309
3768,0.1466275596
3769,0.1564027309
3770,0.1564027309
3771,0.1564027309
3772,0.1564027309
3773,0.1564027309
3774,0.2052785873
3775,0.1955034160
3776,0.2150537729
3777,0.2541544437
3778,0.3225806236
3779,0.2932551193
3780,0.2737047910
3781,0.2541544437
3782,0.2443792819
3783,0.2639296054
3784,0.2639296054
3785,0.2834799575
3786,0.3030303001
3787,0.3030303001
3788,0.2737047910
3789,0.2932551193
3790,0.3030303001
3791,0.2834799575
3792,0.2932551193
3793,0.2834799575
3794,0.2541544437
3795,0.2346040964
3796,0.2346040964
3797,0.2639296054
3798,0.2541544437
3799,0.2346040964
3800,0.2052785873
3801,0.2248289346
3802,0.2346040964
3803,0.2150537729
3804,0.2052785873
3805,0.1857282543
3806,0.1759530782
3807,0.1759530782
3808,0.1661779165
3809,0.1661779165
3810,0.1466275596
3811,0.1564027309
3812,0.1661779165
3813,0.1466275596
3814,0.1368523955
3815,0.1564027309
3816,0.1466275596
3817,0.1564027309
3818,0.1564027309
3819,0.1661779165
3820,0.1466275596
3821,0.1661779165
3822,0.1661779165
3823,0.1759530782
3824,0.1759530782
3825,0.1857282543
3826,0.1857282543
3827,0.1857282543
3828,0.1857282543
3829,0.1661779165
3830,0.1466275596
3831,0.1466275596
3832,0.1466275596
3833,0.1661779165
3834,0.1661779165
3835,0.1661779165
3836,0.1759530782
3837,0.2150537729
3838,0.2248289346
3839,0.2052785873
3840,0.1955034160
3841,0.1857282543
3842,0.1955034160
3843,0.2346040964
3844,0.2541544437
3845,0.2541544437
3846,0.2541544437
3847,0.2834799575
3848,0.2834799575
3849,0.2541544437
3850,0.2639296054
3851,0.2932551193
3852,0.3030303001
3853,0.3714565038
3854,0.3910068321
3855,0.3812316703
3856,0.3714565038
3857,0.4105571746
3858,0.4398827075
3859,0.3812316703
3860,0.4105571746
3861,0.3812316703
3862,0.4105571746
3863,0.4105571746
3864,0.4496578693
3865,0.5180840492
3866,0.5180840492
3867,0.4789833545
3868,0.4301075458
3869,0.4007820129
3870,0.3812316703
3871,0.3519061565
3872,0.3128054618
3873,0.3030303001
3874,0.3030303001
3875,0.2834799575
3876,0.2737047910
3877,0.2932551193
3878,0.2737047910
3879,0.2443792819
3880,0.2150537729
3881,0.2248289346
3882,0.2150537729
3883,0.2052785873
3884,0.2248289346
3885,0.2639296054
3886,0.2541544437
3887,0.2346040964
3888,0.2150537729
3889,0.2150537729
3890,0.2150537729
3891,0.2248289346
3892,0.2541544437
3893,0.2346040964
3894,0.2346040964
3895,0.2346040964
3896,0.2443792819
3897,0.2346040964
3898,0.2346040964
3899,0.2052785873
3900,0.1857282543
3901,0.2150537729
3902,0.2052785873
3903,0.1857282543
3904,0.1661779165
3905,0.1759530782
3906,0.1759530782
3907,0.1759530782
3908,0.1759530782
3909,0.1564027309
3910,0.1759530782
3911,0.1661779165
3912,0.1661779165
3913,0.1466275596
3914,0.1368523955
3915,0.1661779165
3916,0.1759530782
3917,0.1661779165
3918,0.1759530782
3919,0.1857282543
3920,0.1759530782
3921,0.1759530782
3922,0.1564027309
3923,0.1661779165
3924,0.1661779165
3925,0.1564027309
3926,0.1564027309
3927,0.1857282543
3928,0.1857282543
3929,0.2052785873
3930,0.2346040964
3931,0.2150537729
3932,0.1955034160
3933,0.1955034160
3934,0.1661779165
3935,0.1661779165
3936,0.1564027309
3937,0.1368523955
3938,0.1368523955
3939,0.1368523955
3940,0.1466275596
3941,0.1466275596
3942,0.1368523955
3943,0.1564027309
3944,0.1564027309
3945,0.1759530782
3946,0.1661779165
3947,0.1564027309
3948,0.1661779165
3949,0.1661779165
3950,0.1564027309
3951,0.1466275596
3952,0.1564027309
3953,0.1857282543
3954,0.1661779165
3955,0.1564027309
3956,0.1466275596
3957,0.1466275596
3958,0.1368523955
3959,0.1270772218
3960,0.1173020482
3961,0.1075268864
3962,0.1075268864
3963,0.1075268864
3964,0.0977517032
3965,0.1075268864
3966,0.1075268864
3967,0.1270772218
3968,0.1466275596
3969,0.1564027309
3970,0.1661779165
3971,0.1661779165
3972,0.1955034160
3973,0.2052785873
3974,0.2052785873
3975,0.1955034160
3976,0.2248289346
3977,0.2346040964
3978,0.2248289346
3979,0.2346040964
3980,0.2346040964
3981,0.2346040964
3982,0.2443792819
3983,0.2346040964
3984,0.2737047910
3985,0.2639296054
3986,0.2639296054
3987,0.2639296054
3988,0.3030303001
3989,0.3519061565
3990,0.3616813421
3991,0.3421309947
3992,0.3519061565
3993,0.3421309947
3994,0.3323558330
3995,0.3616813421
3996,0.3225806236
3997,0.3030303001
3998,0.2932551193
3999,0.2834799575
4000,0.3030303001
4001,1.3978494453
4002,1.5249266624
4003,1.6715541839
4004,1.8963831901
4005,1.7986314296
4006,1.5835777282
4007,1.3196481466
4008,1.1339198350
4009,0.9970674514
4010,0.8699902534
4011,0.7820136547
4012,0.6744868278
4013,0.5669599056
4014,0.5083088874
4015,0.4496578693
4016,0.3910068321
4017,0.3616813421
4018,0.3616813421
4019,0.3616813421
4020,0.3323558330
4021,0.2932551193
4022,0.3030303001
4023,0.2639296054
4024,0.2346040964
4025,0.2346040964
4026,0.2052785873
4027,0.1857282543
4028,0.2052785873
4029,0.1857282543
4030,0.1661779165
4031,0.1466275596
4032,0.1466275596
4033,0.1466275596
4034,0.1368523955
4035,0.1075268864
4036,0.0977517032
4037,0.0977517032
4038,0.0977517032
4039,0.0977517032
4040,0.1075268864
4041,0.0977517032
4042,0.0977517032
4043,0.0977517032
4044,0.0879765415
4045,0.1075268864
4046,0.1173020482
4047,0.1270772218
4048,0.1270772218
4049,0.1270772218
4050,0.1466275596
4051,0.1466275596
4052,0.1466275596
4053,0.1466275596
4054,0.1368523955
4055,0.1564027309
4056,0.1857282543
4057,0.1955034160
4058,0.1955034160
4059,0.1857282543
4060,0.1857282543
4061,0.1661779165
4062,0.1466275596
4063,0.1466275596
4064,0.1564027309
4065,0.1759530782
4066,0.1759530782
4067,0.1759530782
4068,0.1759530782
4069,0.1857282543
4070,0.1759530782
4071,0.1661779165
4072,0.1759530782
4073,0.1661779165
4074,0.1564027309
4075,0.1368523955
4076,0.1075268864
4077,0.1173020482
4078,0.1759530782
4079,0.1564027309
4080,0.1368523955
4081,0.1173020482
4082,0.1173020482
4083,0.1466275596
4084,0.1857282543
4085,0.1564027309
4086,0.1564027309
4087,0.1661779165
4088,0.1661779165
4089,0.1857282543
4090,0.2052785873
4091,0.2150537729
4092,0.2737047910
4093,0.3030303001
4094,0.2639296054
4095,0.2639296054
4096,0.3225806236
4097,0.4398827075
4098,0.5278592109
4099,0.6549364089
4100,0.7429130077
4101,0.7429130077
4102,1.0654937028
4103,1.1045943498
4104,0.9579667091
4105,1.0263929367
4106,0.9970674514
4107,0.9188660621
4108,0.8015640258
4109,0.6549364089
4110,0.6060606002
4111,0.6353860855
4112,0.6842619895
4113,0.6940371513
4114,0.6353860855
4115,0.5376344203
4116,0.4398827075
4117,0.3812316703
4118,0.3128054618
4119,0.2639296054
4120,0.2639296054
4121,0.2346040964
4122,0.2639296054
4123,0.3616813421
4124,0.4203323364
4125,0.4887585639
4126,0.6451612472
4127,0.8113391876
4128,1.0166177749
4129,1.1436949968
4130,1.5933528900
4131,1.7106549739
4132,1.5640273094
4133,1.3880742835
4134,1.1827956390
4135,1.0654937028
4136,1.1143695116
4137,1.2121212482
4138,1.7693059444
4139,2.2580645084
4140,2.1505377292
4141,1.7399804592
4142,1.8572825431
4143,2.0430107116
4144,2.1016616821
4145,1.9354838371
4146,1.7693059444
4147,1.6129032135
4148,1.4076246261
4149,1.6129032135
4150,1.0361680984
4151,1.0557184219
4152,0.9579667091
4153,0.9579667091
4154,0.9677418708
4155,0.9090909004
4156,0.7917888641
4157,0.7038123130
4158,0.6158357620
4159,0.5669599056
4160,0.4985337257
4161,0.4594330310
4162,0.4887585639
4163,0.4887585639
4164,0.4985337257
4165,0.4692081928
4166,0.5278592109
4167,0.6647116661
4168,0.7526881694
4169,0.8015640258
4170,0.7820136547
4171,0.6549364089
4172,0.5571847438
4173,0.4789833545
4174,0.4692081928
4175,0.5083088874
4176,0.4887585639
4177,0.4301075458
4178,0.3910068321
4179,0.3323558330
4180,0.2932551193
4181,0.2639296054
4182,0.2443792819
4183,0.2248289346
4184,0.2052785873
4185,0.1759530782
4186,0.2248289346
4187,0.2052785873
4188,0.1955034160
4189,0.1857282543
4190,0.2052785873
4191,0.1955034160
4192,0.1661779165
4193,0.1564027309
4194,0.1759530782
4195,0.1857282543
4196,0.2052785873
4197,0.2248289346
4198,0.2346040964
4199,0.2639296054
4200,0.3225806236
4201,0.3519061565
4202,0.3421309947
4203,0.3128054618
4204,0.3030303001
4205,0.2541544437
4206,0.2150537729
4207,0.1955034160
4208,0.2052785873
4209,0.1955034160
4210,0.1857282543
4211,0.1564027309
4212,0.1466275596
4213,0.1661779165
4214,0.1661779165
4215,0.1368523955
4216,0.1270772218
4217,0.1564027309
4218,0.1466275596
4219,0.1270772218
4220,0.1270772218
4221,0.1270772218
4222,0.1173020482
4223,0.1857282543
4224,0.2052785873
4225,0.2248289346
4226,0.2541544437
4227,0.2346040964
4228,0.2541544437
4229,0.3323558330
4230,0.4594330310
4231,0.5962854385
4232,0.5180840492
4233,0.4594330310
4234,0.4105571746
4235,0.4203323364
4236,0.5278592109
4237,0.6256109237
4238,0.6647116661
4239,0.6549364089
4240,0.6060606002
4241,0.6451612472
4242,0.7722384929
4243,0.7135874748
4244,0.5767350673
4245,0.4887585639
4246,0.3910068321
4247,0.3616813421
4248,0.3323558330
4249,0.3225806236
4250,0.2737047910
4251,0.2150537729
4252,0.2052785873
4253,0.1564027309
4254,0.1368523955
4255,0.1173020482
4256,0.0977517032
4257,0.0879765415
4258,0.1368523955
4259,0.1759530782
4260,0.2541544437
4261,0.3421309947
4262,0.4203323364
4263,0.4887585639
4264,0.5571847438
4265,0.6158357620
4266,0.6549364089
4267,0.7429130077
4268,0.7820136547
4269,0.7429130077
4270,0.8602150917
4271,1.1730204820
4272,1.3782991170
4273,1.3587487936
4274,1.2707722187
4275,1.1534701585
4276,1.1730204820
4277,1.1436949968
4278,1.3196481466
4279,1.7302052974
4280,2.2678396701
4281,2.2482893466
4282,2.1603128910
4283,2.4828934669
4284,2.1896383762
4285,1.9061583518
4286,2.2189638614
4287,2.2189638614
4288,2.1212120056
4289,2.2776148319
4290,2.1114368438
4291,2.0430107116
4292,2.0039100646
4293,1.7595307826
4294,1.4760508537
4295,1.2609970569
4296,1.5347018241
4297,1.4760508537
4298,1.6715541839
4299,1.8768328666
4300,1.7204301357
4301,1.6520038604
4302,1.7790811061
4303,1.5542521476
4304,1.3391984701
4305,1.2414467334
4306,1.5835777282
4307,1.7399804592
4308,0.5376344203
4309,0.5962854385
4310,0.6353860855
4311,0.7331378459
4312,0.6451612472
4313,0.5669599056
4314,0.5669599056
4315,0.5571847438
4316,0.4985337257
4317,0.4398827075
4318,0.3910068321
4319,0.3323558330
4320,0.2932551193
4321,0.2541544437
4322,0.2248289346
4323,0.2541544437
4324,0.3225806236
4325,0.3323558330
4326,0.2932551193
4327,0.2443792819
4328,0.2052785873
4329,0.1759530782
4330,0.1759530782
4331,0.1759530782
4332,0.1661779165
4333,0.1955034160
4334,0.2443792819
4335,0.2932551193
4336,0.2932551193
4337,0.2737047910
4338,0.2346040964
4339,0.2150537729
4340,0.1857282543
4341,0.1564027309
4342,0.1466275596
4343,0.1270772218
4344,0.1075268864
4345,0.0879765415
4346,0.0977517032
4347,0.1173020482
4348,0.1466275596
4349,0.1857282543
4350,0.1661779165
4351,0.1466275596
4352,0.1368523955
4353,0.1759530782
4354,0.2443792819
4355,0.3128054618
4356,0.3128054618
4357,0.2932551193
4358,0.2932551193
4359,0.3323558330
4360,0.3812316703
4361,0.6256109237
4362,0.6940371513
4363,0.6158357620
4364,0.5180840492
4365,0.4496578693
4366,0.4203323364
4367,0.4496578693
4368,0.4105571746
4369,0.3519061565
4370,0.2834799575
4371,0.2639296054
4372,0.2737047910
4373,0.2541544437
4374,0.2052785873
4375,0.1955034160
4376,0.2443792819
4377,0.3030303001
4378,0.2639296054
4379,0.2248289346
4380,0.2052785873
4381,0.1955034160
4382,0.1955034160
4383,0.2443792819
4384,0.3030303001
4385,0.3030303001
4386,0.2541544437
4387,0.2150537729
4388,0.2150537729
4389,0.2248289346
4390,0.2150537729
4391,0.2150537729
4392,0.2248289346
4393,0.1955034160
4394,0.1661779165
4395,0.1466275596
4396,0.1564027309
4397,0.1661779165
4398,0.2346040964
4399,0.3225806236
4400,0.3323558330
4401,0.3323558330
4402,0.3128054618
4403,0.2932551193
4404,0.2737047910
4405,0.2639296054
4406,0.2737047910
4407,0.2834799575
4408,0.2639296054
4409,0.3323558330
4410,0.3910068321
4411,0.4105571746
4412,0.3421309947
4413,0.3714565038
4414,0.4301075458
4415,0.4007820129
4416,0.4105571746
4417,0.4594330310
4418,0.4692081928
4419,0.7429130077
4420,1.2121212482
4421,1.4076246261
4422,1.3587487936
4423,1.2414467334
4424,1.1045943498
4425,1.3196481466
4426,1.3782991170
4427,1.4271749496
4428,1.3685239553
4429,1.4565005302
4430,1.3196481466
4431,1.5933528900
4432,1.6715541839
4433,1.5151515007
4434,1.3489736318
4435,1.2121212482
4436,1.0557184219
4437,0.9090909004
4438,0.8993157386
4439,0.8211143493
4440,0.7820136547
4441,0.7233626842
4442,0.7038123130
4443,0.6256109237
4444,0.5180840492
4445,0.4496578693
4446,0.4496578693
4447,0.4496578693
4448,0.4203323364
4449,0.4007820129
4450,0.3323558330
4451,0.3225806236
4452,0.3323558330
4453,0.3030303001
4454,0.2834799575
4455,0.2737047910
4456,0.2541544437
4457,0.2443792819
4458,0.2052785873
4459,0.1759530782
4460,0.1661779165
4461,0.1564027309
4462,0.1368523955
4463,0.1368523955
4464,0.1270772218
4465,0.1759530782
4466,0.2052785873
4467,0.1955034160
4468,0.1759530782
4469,0.1661779165
4470,0.1466275596
4471,0.1368523955
4472,0.1270772218
4473,0.1466275596
4474,0.1661779165
4475,0.1955034160
4476,0.2346040964
4477,0.2346040964
4478,0.2150537729
4479,0.2150537729
4480,0.1857282543
4481,0.1661779165
4482,0.1466275596
4483,0.1368523955
4484,0.1075268864
4485,0.1075268864
4486,0.0977517032
4487,0.0977517032
4488,0.0977517032
4489,0.1075268864
4490,0.1173020482
4491,0.1466275596
4492,0.1466275596
4493,0.1270772218
4494,0.1075268864
4495,0.0977517032
4496,0.0782013654
4497,0.0684261989
4498,0.0684261989
4499,0.0782013654
4500,0.0782013654
4501,0.0684261989
4502,0.0879765415
4503,0.0977517032
4504,0.1270772218
4505,0.1661779165
4506,0.2346040964
4507,0.2834799575
4508,0.2932551193
4509,0.2443792819
4510,0.2150537729
4511,0.2052785873
4512,0.3128054618
4513,0.4105571746
4514,0.3714565038
4515,0.3225806236
4516,0.3030303001
4517,0.2834799575
4518,0.2346040964
4519,0.2150537729
4520,0.2052785873
4521,0.1759530782
4522,0.1466275596
4523,0.1661779165
4524,0.2150537729
4525,0.2443792819
4526,0.2443792819
4527,0.2737047910
4528,0.2834799575
4529,0.2932551193
4530,0.3323558330
4531,0.4985337257
4532,0.5180840492
4533,0.4496578693
4534,0.4398827075
4535,0.4203323364
4536,0.3421309947
4537,0.3519061565
4538,0.4301075458
4539,0.4887585639
4540,0.5083088874
4541,0.4692081928
4542,0.6451612472
4543,0.8113391876
4544,0.9188660621
4545,0.9188660621
4546,0.8211143493
4547,0.7135874748
4548,0.6842619895
4549,0.7135874748
4550,0.7331378459
4551,0.7038123130
4552,0.6647116661
4553,0.7331378459
4554,0.8308895111
4555,0.9481915473
4556,1.0263929367
4557,1.3000977039
4558,1.6324535369
4559,1.8279570579
4560,1.6129032135
4561,1.4173997879
4562,1.2414467334
4563,1.3978494453
4564,1.5347018241
4565,1.4858260154
4566,1.3685239553
4567,1.2121212482
4568,1.1045943498
4569,1.3685239553
4570,1.5151515007
4571,1.7399804592
4572,1.6031280517
4573,1.3880742835
4574,1.2414467334
4575,1.0361680984
4576,0.8699902534
4577,0.7233626842
4578,0.6158357620
4579,0.7624633312
4580,0.8015640258
4581,0.7331378459
4582,0.7233626842
4583,0.5865102291
4584,0.4985337257
4585,0.4594330310
4586,0.4496578693
4587,0.4789833545
4588,0.4594330310
4589,0.4301075458
4590,0.4007820129
4591,0.4496578693
4592,0.4496578693
4593,0.4007820129
4594,0.3812316703
4595,0.3714565038
4596,0.3225806236
4597,0.2932551193
4598,0.2541544437
4599,0.2150537729
4600,0.2052785873
4601,0.1955034160
4602,0.1759530782
4603,0.1661779165
4604,0.1661779165
4605,0.1466275596
4606,0.1564027309
4607,0.1466275596
4608,0.1368523955
4609,0.1368523955
4610,0.1368523955
4611,0.1270772218
4612,0.1173020482
4613,0.1075268864
4614,0.1173020482
4615,0.1173020482
4616,0.1173020482
4617,0.1270772218
4618,0.1270772218
4619,0.1368523955
4620,0.1564027309
4621,0.1661779165
4622,0.1955034160
4623,0.2052785873
4624,0.2346040964
4625,0.2346040964
4626,0.2346040964
4627,0.2248289346
4628,0.1857282543
4629,0.1564027309
4630,0.1368523955
4631,0.1173020482
4632,0.1075268864
4633,0.0977517032
4634,0.1075268864
4635,0.1368523955
4636,0.1955034160
4637,0.2248289346
4638,0.2443792819
4639,0.2248289346
4640,0.2052785873
4641,0.1759530782
4642,0.1466275596
4643,0.1270772218
4644,0.1368523955
4645,0.1368523955
4646,0.1173020482
4647,0.1368523955
4648,0.1466275596
4649,0.1564027309
4650,0.1466275596
4651,0.1270772218
4652,0.1075268864
4653,0.0977517032
4654,0.0782013654
4655,0.0684261989
4656,0.0782013654
4657,0.0977517032
4658,0.1075268864
4659,0.0879765415
4660,0.0879765415
4661,0.1270772218
4662,0.1466275596
4663,0.1466275596
4664,0.1368523955
4665,0.1173020482
4666,0.0977517032
4667,0.0977517032
4668,0.0879765415
4669,0.0684261989
4670,0.0586510229
4671,0.0391006832
4672,0.0488758516
4673,0.0391006832
4674,0.0391006832
4675,0.0488758516
4676,0.1075268864
4677,0.1564027309
4678,0.1955034160
4679,0.1759530782
4680,0.1857282543
4681,0.2639296054
4682,0.3616813421
4683,0.4398827075
4684,0.4594330310
4685,0.4301075458
4686,0.3616813421
4687,0.2932551193
4688,0.2834799575
4689,0.2932551193
4690,0.3128054618
4691,0.3225806236
4692,0.3323558330
4693,0.3225806236
4694,0.3128054618
4695,0.2834799575
4696,0.2541544437
4697,0.2346040964
4698,0.2150537729
4699,0.2052785873
4700,0.1955034160
4701,0.1857282543
4702,0.1759530782
4703,0.1661779165
4704,0.1857282543
4705,0.1955034160
4706,0.2052785873
4707,0.1955034160
4708,0.1955034160
4709,0.2248289346
4710,0.2737047910
4711,0.3030303001
4712,0.2834799575
4713,0.3910068321
4714,0.4887585639
4715,0.6256109237
4716,0.8308895111
4717,0.8699902534
4718,0.8015640258
4719,0.7526881694
4720,0.7722384929
4721,0.8015640258
4722,0.9090909004
4723,0.9090909004
4724,0.8504399299
4725,0.7820136547
4726,0.8504399299
4727,0.9188660621
4728,1.0459432601
4729,1.6813293457
4730,1.7399804592
4731,1.9354838371
4732,1.9257086753
4733,1.6129032135
4734,1.4076246261
4735,1.2903225421
4736,1.2023460865
4737,0.9775171279
4738,0.8993157386
4739,0.9286412239
4740,0.7820136547
4741,0.8797654151
4742,0.8113391876
4743,0.7233626842
4744,0.7429130077
4745,0.5962854385
4746,0.6744868278
4747,0.4789833545
4748,0.4398827075
4749,0.3910068321
4750,0.3421309947
4751,0.3030303001
4752,0.2834799575
4753,0.3030303001
4754,0.2932551193
4755,0.2541544437
4756,0.2346040964
4757,0.2052785873
4758,0.1661779165
4759,0.1661779165
4760,0.1661779165
4761,0.1759530782
4762,0.1857282543
4763,0.1759530782
4764,0.1955034160
4765,0.1955034160
4766,0.1661779165
4767,0.2248289346
4768,0.2541544437
4769,0.3323558330
4770,0.3519061565
4771,0.2932551193
4772,0.2737047910
4773,0.2541544437
4774,0.2248289346
4775,0.2150537729
4776,0.2346040964
4777,0.2346040964
4778,0.2052785873
4779,0.1857282543
4780,0.1564027309
4781,0.1564027309
4782,0.1368523955
4783,0.1270772218
4784,0.1075268864
4785,0.1075268864
4786,0.1173020482
4787,0.1270772218
4788,0.1661779165
4789,0.1857282543
4790,0.2150537729
4791,0.2150537729
4792,0.1955034160
4793,0.1857282543
4794,0.2052785873
4795,0.1857282543
4796,0.1564027309
4797,0.1368523955
4798,0.1173020482
4799,0.1564027309
4800,0.2150537729
4801,0.2541544437
4802,0.3030303001
4803,0.5669599056
4804,0.5474095821
4805,0.4985337257
4806,0.5278592109
4807,0.4594330310
4808,0.4301075458
4809,0.4105571746
4810,0.3812316703
4811,0.3616813421
4812,0.2932551193
4813,0.2443792819
4814,0.2443792819
4815,0.2248289346
4816,0.2248289346
4817,0.2639296054
4818,0.2150537729
4819,0.1955034160
4820,0.1661779165
4821,0.2052785873
4822,0.2834799575
4823,0.3519061565
4824,0.3616813421
4825,0.3323558330
4826,0.4594330310
4827,0.4789833545
4828,0.4496578693
4829,0.4007820129
4830,0.4007820129
4831,0.4398827075
4832,0.5278592109
4833,0.5669599056
4834,0.5376344203
4835,0.4789833545
4836,0.4496578693
4837,0.4496578693
4838,0.4203323364
4839,0.3421309947
4840,0.3225806236
4841,0.3225806236
4842,0.3519061565
4843,0.3421309947
4844,0.3128054618
4845,0.3812316703
4846,0.3519061565
4847,0.3616813421
4848,0.3225806236
4849,0.4496578693
4850,0.6842619895
4851,0.9775171279
4852,1.4369501113
4853,1.8768328666
4854,1.9648094177
4855,1.5640273094
4856,1.5053763389
4857,1.6520038604
4858,1.6911046504
4859,1.6813293457
4860,1.8866080284
4861,2.0625610351
4862,1.9061583518
4863,1.7204301357
4864,1.5347018241
4865,1.4956011772
4866,1.2609970569
4867,1.1241446733
4868,1.0166177749
4869,0.8504399299
4870,0.7331378459
4871,0.6353860855
4872,0.5571847438
4873,0.4692081928
4874,0.4985337257
4875,0.5474095821
4876,0.4887585639
4877,0.4398827075
4878,0.4496578693
4879,0.4594330310
4880,0.4594330310
4881,0.3910068321
4882,0.3421309947
4883,0.2932551193
4884,0.2639296054
4885,0.2346040964
4886,0.2052785873
4887,0.1857282543
4888,0.1955034160
4889,0.2346040964
4890,0.2541544437
4891,0.2150537729
4892,0.1857282543
4893,0.1564027309
4894,0.1466275596
4895,0.1368523955
4896,0.1270772218
4897,0.1270772218
4898,0.1564027309
4899,0.1564027309
4900,0.1466275596
4901,0.1270772218
4902,0.1173020482
4903,0.1173020482
4904,0.1173020482
4905,0.1368523955
4906,0.1270772218
4907,0.1075268864
4908,0.1075268864
4909,0.1368523955
4910,0.2150537729
4911,0.2052785873
4912,0.1661779165
4913,0.1466275596
4914,0.1466275596
4915,0.1368523955
4916,0.1270772218
4917,0.1075268864
4918,0.1173020482
4919,0.1270772218
4920,0.0977517032
4921,0.0879765415
4922,0.0684261989
4923,0.0684261989
4924,0.0684261989
4925,0.0782013654
4926,0.0782013654
4927,0.0684261989
4928,0.0684261989
4929,0.0586510229
4930,0.0488758516
4931,0.0391006832
4932,0.0391006832
4933,0.0391006832
4934,0.0391006832
4935,0.0391006832
4936,0.0684261989
4937,0.0879765415
4938,0.1270772218
4939,0.1466275596
4940,0.1759530782
4941,0.2248289346
4942,0.2639296054
4943,0.2834799575
4944,0.3030303001
4945,0.3030303001
4946,0.3030303001
4947,0.2932551193
4948,0.2346040964
4949,0.2541544437
4950,0.4594330310
4951,0.4496578693
4952,0.4007820129
4953,0.3714565038
4954,0.3910068321
4955,0.3616813421
4956,0.2932551193
4957,0.2541544437
4958,0.2443792819
4959,0.2737047910
4960,0.2737047910
4961,0.2248289346
4962,0.2052785873
4963,0.2932551193
4964,0.3030303001
4965,0.3421309947
4966,0.3225806236
4967,0.2737047910
4968,0.2248289346
4969,0.1857282543
4970,0.1564027309
4971,0.1270772218
4972,0.0977517032
4973,0.0977517032
4974,0.1075268864
4975,0.1173020482
4976,0.1173020482
4977,0.1075268864
4978,0.1075268864
4979,0.1173020482
4980,0.1466275596
4981,0.1466275596
4982,0.1173020482
4983,0.1368523955
4984,0.1368523955
4985,0.1857282543
4986,0.2834799575
4987,0.4007820129
4988,0.5767350673
4989,0.6353860855
4990,0.6060606002
4991,0.6256109237
4992,0.8308895111
4993,1.1045943498
4994,1.1925709247
4995,1.2609970569
4996,1.2414467334
4997,1.1827956390
4998,1.1436949968
4999,1.2512218952
5000,1.1143695116
5001,1.8279570579
5002,1.5347018241
5003,1.2805473804
5004,1.0557184219
5005,0.8699902534
5006,0.7331378459
5007,0.6060606002
5008,0.5571847438
5009,0.4887585639
5010,0.4496578693
5011,0.9872922897
5012,0.4594330310
5013,0.3323558330
5014,0.3128054618
5015,0.2834799575
5016,0.2541544437
5017,0.2346040964
5018,0.2248289346
5019,0.2052785873
5020,0.2052785873
5021,0.1759530782
5022,0.1759530782
5023,0.1955034160
5024,0.2248289346
5025,0.2052785873
5026,0.1955034160
5027,0.2150537729
5028,0.2052785873
5029,0.1955034160
5030,0.1857282543
5031,0.1759530782
5032,0.1857282543
5033,0.1661779165
5034,0.1661779165
5035,0.1759530782
5036,0.1661779165
5037,0.1564027309
5038,0.1368523955
5039,0.1270772218
5040,0.1466275596
5041,0.1466275596
5042,0.1466275596
5043,0.2052785873
5044,0.2150537729
5045,0.2248289346
5046,0.2346040964
5047,0.2150537729
5048,0.1955034160
5049,0.1857282543
5050,0.1661779165
5051,0.1466275596
5052,0.1075268864
5053,0.0977517032
5054,0.0977517032
5055,0.0879765415
5056,0.0879765415
5057,0.1466275596
5058,0.1661779165
5059,0.1368523955
5060,0.1270772218
5061,0.1075268864
5062,0.1173020482
5063,0.0977517032
5064,0.0879765415
5065,0.0879765415
5066,0.1075268864
5067,0.0977517032
5068,0.0977517032
5069,0.0977517032
5070,0.0879765415
5071,0.0977517032
5072,0.0977517032
5073,0.1270772218
5074,0.1857282543
5075,0.2052785873
5076,0.2248289346
5077,0.2150537729
5078,0.1857282543
5079,0.2052785873
5080,0.1857282543
5081,0.2150537729
5082,0.2346040964
5083,0.1857282543
5084,0.2443792819
5085,0.2150537729
5086,0.1857282543
5087,0.1661779165
5088,0.1368523955
5089,0.1368523955
5090,0.1270772218
5091,0.1075268864
5092,0.0879765415
5093,0.0782013654
5094,0.0391006832
5095,0.0391006832
5096,0.0391006832
5097,0.0293255119
5098,0.0293255119
5099,0.0195503416
5100,0.0195503416
5101,0.0293255119
5102,0.0293255119
5103,0.0293255119
5104,0.0293255119
5105,0.0195503416
5106,0.0195503416
5107,0.0195503416
5108,0.0097751703
5109,0.0097751703
5110,0.0097751703
5111,0.0097751703
5112,0.0097751703
5113,0.0097751703
5114,0.0097751703
5115,0.0097751703
5116,0.0097751703
5117,0.0097751703
5118,0.0097751703
5119,0.0097751703
5120,0.0097751703
5121,0.0000000000
5122,0.0195503416
5123,0.0293255119
5124,0.0293255119
5125,0.0293255119
5126,0.0293255119
5127,0.0195503416
5128,0.0293255119
5129,0.0293255119
5130,0.0488758516
5131,0.0488758516
5132,0.0782013654
5133,0.0782013654
5134,0.0782013654
5135,0.0977517032
5136,0.0977517032
5137,0.1173020482
5138,0.1173020482
5139,0.1368523955
5140,0.1270772218
5141,0.1368523955
5142,0.2248289346
5143,0.2150537729
5144,0.2346040964
5145,0.2737047910
5146,0.2639296054
5147,0.2639296054
5148,0.2443792819
5149,0.2737047910
5150,0.3323558330
5151,0.4692081928
5152,0.4887585639
5153,0.4887585639
5154,0.4692081928
5155,0.4301075458
5156,0.4398827075
5157,0.4007820129
5158,0.3812316703
5159,0.4887585639
5160,0.4789833545
5161,0.3030303001
5162,0.2443792819
5163,0.2639296054
5164,0.2737047910
5165,0.2737047910
5166,0.2248289346
5167,0.7722384929
5168,0.3128054618
5169,0.2346040964
5170,0.3128054618
5171,0.2737047910
5172,0.9481915473
5173,0.1759530782
5174,0.2248289346
5175,0.2248289346
5176,0.2248289346
5177,0.2052785873
5178,0.2443792819
5179,0.2346040964
5180,0.2052785873
5181,0.1955034160
5182,0.1759530782
5183,0.1759530782
5184,0.1564027309
5185,0.1564027309
5186,0.1368523955
5187,0.1368523955
5188,0.1270772218
5189,0.1075268864
5190,0.1368523955
5191,0.1368523955
5192,0.1368523955
5193,0.1173020482
5194,0.1173020482
5195,0.1270772218
5196,0.1270772218
5197,0.1270772218
5198,0.1270772218
5199,0.1466275596
5200,0.1466275596
5201,0.1368523955
5202,0.1270772218
5203,0.1270772218
5204,0.1270772218
5205,0.1270772218
5206,0.1270772218
5207,0.1173020482
5208,0.1270772218
5209,0.1368523955
5210,0.1564027309
5211,0.0977517032
5212,0.0879765415
5213,0.0782013654
5214,0.0684261989
5215,0.0684261989
5216,0.0782013654
5217,0.1075268864
5218,0.0586510229
5219,0.0586510229
5220,0.0586510229
5221,0.7722384929
5222,0.2932551193
5223,0.1466275596
5224,0.1173020482
5225,0.1173020482
5226,0.1075268864
5227,0.0879765415
5228,0.0782013654
5229,0.0684261989
5230,0.0684261989
5231,0.0977517032
5232,0.1466275596
5233,0.1564027309
5234,0.1759530782
5235,0.1564027309
5236,0.1564027309
5237,0.1368523955
5238,0.1368523955
5239,0.2150537729
5240,0.4496578693
5241,0.0879765415
5242,0.0782013654
5243,0.0684261989
5244,0.0586510229
5245,0.0488758516
5246,0.0391006832
5247,0.0782013654
5248,1.7399804592
5249,1.8377322196
5250,0.1857282543
5251,0.0782013654
5252,0.0684261989
5253,0.0293255119
5254,0.0195503416
5255,0.0195503416
5256,0.0195503416
5257,0.0097751703
5258,0.0195503416
5259,0.0195503416
5260,0.0097751703
5261,0.0097751703
5262,0.0097751703
5263,0.0097751703
5264,0.0097751703
5265,0.0097751703
5266,0.0195503416
5267,0.0097751703
5268,0.0195503416
5269,0.0293255119
5270,0.0293255119
5271,0.0391006832
5272,0.0586510229
5273,0.0879765415
5274,0.0782013654
5275,0.0782013654
5276,0.0977517032
5277,0.1075268864
5278,0.1075268864
5279,0.1173020482
5280,0.1270772218
5281,0.1955034160
5282,0.2737047910
5283,0.2639296054
5284,0.3128054618
5285,0.3225806236
5286,0.2737047910
5287,0.2541544437
5288,0.2737047910
5289,0.2639296054
5290,0.2541544437
5291,0.2346040964
5292,0.2248289346
5293,0.2541544437
5294,0.2248289346
5295,0.2346040964
5296,0.2541544437
5297,0.2834799575
5298,0.3323558330
5299,0.3421309947
5300,0.3128054618
5301,0.2932551193
5302,1.1827956390
5303,0.3812316703
5304,0.3421309947
5305,0.3128054618
5306,0.3030303001
5307,0.2932551193
5308,0.2834799575
5309,0.2932551193
5310,0.3030303001
5311,0.3421309947
5312,0.3812316703
5313,0.3812316703
5314,0.3812316703
5315,0.3128054618
5316,0.3030303001
5317,0.3030303001
5318,0.2834799575
5319,0.2639296054
5320,0.2639296054
5321,0.2639296054
5322,0.3030303001
5323,0.3421309947
5324,1.1632453203
5325,0.1759530782
5326,0.1466275596
5327,0.1564027309
5328,0.1564027309
5329,0.1270772218
5330,0.1270772218
5331,0.1368523955
5332,0.1368523955
5333,0.1368523955
5334,0.1173020482
5335,0.1173020482
5336,0.1075268864
5337,0.0879765415
5338,0.0782013654
5339,0.0879765415
5340,0.0879765415
5341,0.0977517032
5342,0.0977517032
5343,0.0977517032
5344,0.0879765415
5345,0.0977517032
5346,0.1075268864
5347,0.0684261989
5348,0.0684261989
5349,0.0684261989
5350,0.0782013654
5351,0.0879765415
5352,0.0977517032
5353,0.0977517032
5354,0.0977517032
5355,0.0879765415
5356,0.0879765415
5357,0.0879765415
5358,0.0782013654
5359,0.0782013654
5360,0.1270772218
5361,0.2737047910
5362,0.5278592109
5363,1.3978494453
5364,1.0459432601
5365,2.3851418495
5366,2.4046921730
5367,1.5738025665
5368,0.0879765415
5369,0.0782013654
5370,0.0977517032
5371,0.1173020482
5372,0.0977517032
5373,0.1075268864
5374,0.1075268864
5375,0.0977517032
5376,0.0879765415
5377,0.0977517032
5378,0.1270772218
5379,0.1661779165
5380,0.1661779165
5381,0.1857282543
5382,0.2932551193
5383,0.2737047910
5384,0.1661779165
5385,0.1075268864
5386,0.0782013654
5387,0.0586510229
5388,0.0488758516
5389,0.0391006832
5390,0.0391006832
5391,0.0391006832
5392,0.0293255119
5393,0.0293255119
5394,0.0488758516
5395,1.4956011772
5396,1.1143695116
5397,0.0977517032
5398,0.5180840492
5399,0.0684261989
5400,0.0391006832
5401,0.0293255119
5402,0.0293255119
5403,0.0195503416
5404,0.0293255119
5405,0.0195503416
5406,0.0097751703
5407,0.0097751703
5408,0.0000000000
5409,0.0097751703
5410,0.0097751703
5411,0.0097751703
5412,0.0000000000
5413,0.0000000000
5414,0.0097751703
5415,0.0000000000
5416,0.0097751703
5417,0.0097751703
5418,0.0195503416
5419,0.0195503416
5420,0.0195503416
5421,0.0195503416
5422,0.0195503416
5423,0.0293255119
5424,0.0293255119
5425,0.0391006832
5426,0.0488758516
5427,0.0488758516
5428,0.0586510229
5429,0.0586510229
5430,0.0684261989
5431,0.0782013654
5432,0.0684261989
5433,0.0782013654
5434,0.0977517032
5435,0.1173020482
5436,0.1075268864
5437,0.1173020482
5438,0.1173020482
5439,0.1368523955
5440,0.1173020482
5441,0.1368523955
5442,0.1368523955
5443,0.1466275596
5444,0.1368523955
5445,0.1270772218
5446,0.1466275596
5447,0.1564027309
5448,0.1661779165
5449,0.1759530782
5450,0.1955034160
5451,0.2150537729
5452,0.2541544437
5453,0.2541544437
5454,0.2932551193
5455,0.3812316703
5456,0.4203323364
5457,0.3714565038
5458,0.3128054618
5459,0.3030303001
5460,0.2737047910
5461,0.2443792819
5462,0.2346040964
5463,0.2443792819
5464,0.2443792819
5465,0.2932551193
5466,0.3225806236
5467,0.3714565038
5468,0.3030303001
5469,0.2639296054
5470,0.2541544437
5471,0.2150537729
5472,0.3225806236
5473,0.1759530782
5474,0.1564027309
5475,0.1564027309
5476,0.1368523955
5477,0.1466275596
5478,0.1466275596
5479,0.1173020482
5480,0.1173020482
5481,0.1173020482
5482,0.1173020482
5483,0.1173020482
5484,0.1075268864
5485,0.0977517032
5486,0.0782013654
5487,0.0879765415
5488,0.0879765415
5489,0.0879765415
5490,0.0782013654
5491,0.0782013654
5492,0.0782013654
5493,0.0782013654
5494,0.0782013654
5495,0.0684261989
5496,0.0586510229
5497,0.0684261989
5498,0.0879765415
5499,0.0879765415
5500,0.0782013654
5501,0.0879765415
5502,0.0782013654
5503,0.0782013654
5504,0.0782013654
5505,0.0782013654
5506,0.1955034160
5507,0.0879765415
5508,0.0879765415
5509,0.0684261989
5510,0.0586510229
5511,0.0684261989
5512,0.0684261989
5513,0.0684261989
5514,0.0782013654
5515,0.0977517032
5516,0.1661779165
5517,0.8308895111
5518,0.5278592109
5519,0.5180840492
5520,0.0586510229
5521,0.0586510229
5522,0.0586510229
5523,0.1270772218
5524,0.0977517032
5525,0.0684261989
5526,0.0684261989
5527,0.0684261989
5528,0.0684261989
5529,0.0684261989
5530,0.0684261989
5531,0.0586510229
5532,0.0488758516
5533,0.0586510229
5534,0.0782013654
5535,0.0782013654
5536,0.0879765415
5537,0.0782013654
5538,0.0782013654
5539,0.0879765415
5540,0.0782013654
5541,0.0782013654
5542,0.0684261989
5543,0.0684261989
5544,0.0488758516
5545,0.0391006832
5546,0.0293255119
5547,0.0293255119
5548,0.0391006832
5549,0.0293255119
5550,0.0293255119
5551,0.0195503416
5552,0.0097751703
5553,0.0097751703
5554,0.0097751703
5555,0.0097751703
5556,0.0097751703
5557,0.0097751703
5558,0.0000000000
5559,0.0000000000
5560,0.0000000000
5561,0.0000000000
5562,0.0000000000
5563,0.0000000000
5564,0.0000000000
5565,0.0000000000
5566,0.0000000000
5567,0.0000000000
5568,0.0000000000
5569,0.0097751703
5570,0.0000000000
5571,0.0000000000
5572,0.0097751703
5573,0.0097751703
5574,0.0195503416
5575,0.0293255119
5576,0.0293255119
5577,0.0488758516
5578,0.0586510229
5579,0.0782013654
5580,0.0879765415
5581,0.0977517032
5582,0.0977517032
5583,0.1075268864
5584,0.1270772218
5585,0.1173020482
5586,0.1075268864
5587,0.1173020482
5588,0.1173020482
5589,0.1270772218
5590,0.1466275596
5591,0.1368523955
5592,0.1759530782
5593,0.1857282543
5594,0.2052785873
5595,0.2248289346
5596,0.2346040964
5597,0.2443792819
5598,0.4594330310
5599,0.4594330310
5600,0.4594330310
5601,0.4496578693
5602,0.4496578693
5603,0.4692081928
5604,0.4007820129
5605,0.3323558330
5606,0.3616813421
5607,0.3616813421
5608,0.3714565038
5609,0.3519061565
5610,0.3323558330
5611,0.3519061565
5612,0.3128054618
5613,0.3030303001
5614,0.4007820129
5615,0.3519061565
5616,0.3421309947
5617,0.3421309947
5618,0.3323558330
5619,0.2932551193
5620,0.2639296054
5621,0.2346040964
5622,0.2150537729
5623,0.2248289346
5624,0.1955034160
5625,0.1759530782
5626,0.1661779165
5627,0.1368523955
5628,0.1173020482
5629,0.1075268864
5630,0.1075268864
5631,0.1075268864
5632,0.0977517032
5633,0.0977517032
5634,0.0879765415
5635,0.0684261989
5636,0.0684261989
5637,0.0684261989
5638,0.0782013654
5639,0.0586510229
5640,0.0684261989
5641,0.0586510229
5642,0.0684261989
5643,0.0684261989
5644,0.0782013654
5645,0.0879765415
5646,0.1075268864
5647,0.1075268864
5648,0.1075268864
5649,0.0684261989
5650,0.0684261989
5651,0.0782013654
5652,0.0782013654
5653,0.0782013654
5654,0.0586510229
5655,0.0684261989
5656,0.0684261989
5657,0.0782013654
5658,0.0782013654
5659,0.0782013654
5660,0.0684261989
5661,0.0782013654
5662,0.0684261989
5663,0.0684261989
5664,0.0586510229
5665,0.0684261989
5666,0.0586510229
5667,0.0782013654
5668,0.0977517032
5669,0.0782013654
5670,0.0782013654
5671,0.0879765415
5672,0.0977517032
5673,0.0782013654
5674,0.0782013654
5675,0.0684261989
5676,0.0879765415
5677,0.0684261989
5678,0.0879765415
5679,0.1075268864
5680,0.1270772218
5681,0.1368523955
5682,0.1173020482
5683,0.1173020482
5684,0.1075268864
5685,0.0977517032
5686,0.0879765415
5687,0.0782013654
5688,0.0684261989
5689,0.0586510229
5690,0.0684261989
5691,0.0684261989
5692,0.0586510229
5693,0.0586510229
5694,0.0684261989
5695,0.0586510229
5696,0.0684261989
5697,0.0586510229
5698,0.0488758516
5699,0.0391006832
5700,0.0293255119
5701,0.0391006832
5702,0.0293255119
5703,0.0195503416
5704,0.0195503416
5705,0.0195503416
5706,0.0195503416
5707,0.0195503416
5708,0.0097751703
5709,0.0195503416
5710,0.0195503416
5711,0.0097751703
5712,0.0097751703
5713,0.0097751703
5714,0.0097751703
5715,0.0097751703
5716,0.0195503416
5717,0.0195503416
5718,0.0391006832
5719,0.0488758516
5720,0.0488758516
5721,0.0586510229
5722,0.0586510229
5723,0.0684261989
5724,0.0684261989
5725,0.1173020482
5726,0.1466275596
5727,0.1759530782
5728,0.2248289346
5729,0.2346040964
5730,0.2346040964
5731,0.2346040964
5732,0.2932551193
5733,0.2834799575
5734,0.2541544437
5735,0.2541544437
5736,0.2639296054
5737,0.2834799575
5738,0.2639296054
5739,0.2443792819
5740,0.2443792819
5741,0.2737047910
5742,0.2737047910
5743,0.2541544437
5744,0.2737047910
5745,0.2443792819
5746,0.2443792819
5747,0.2639296054
5748,0.2737047910
5749,0.2541544437
5750,0.2150537729
5751,0.1955034160
5752,0.1857282543
5753,0.2150537729
5754,0.2346040964
5755,0.2052785873
5756,0.2052785873
5757,0.2052785873
5758,0.2052785873
5759,0.2052785873
5760,0.2443792819
5761,0.1759530782
5762,0.2052785873
5763,0.2052785873
5764,0.2443792819
5765,0.1759530782
5766,0.1759530782
5767,0.2150537729
5768,0.1955034160
5769,0.1857282543
5770,0.1661779165
5771,0.1857282543
5772,0.1661779165
5773,0.1466275596
5774,0.1368523955
5775,0.1270772218
5776,0.1270772218
5777,0.1270772218
5778,0.1368523955
5779,0.1173020482
5780,0.1075268864
5781,0.1075268864
5782,0.0879765415
5783,0.0782013654
5784,0.0782013654
5785,0.0684261989
5786,0.0684261989
5787,0.0684261989
5788,0.0586510229
5789,0.0586510229
5790,0.0586510229
5791,0.0586510229
5792,0.0684261989
5793,0.0684261989
5794,0.0586510229
5795,0.0488758516
5796,0.0488758516
5797,0.0391006832
5798,0.0488758516
5799,0.0391006832
5800,0.0488758516
5801,0.0391006832
5802,0.0488758516
5803,0.0488758516
5804,0.0488758516
5805,0.0391006832
5806,0.0586510229
5807,0.0586510229
5808,0.0586510229
5809,0.0488758516
5810,0.0488758516
5811,0.0586510229
5812,0.0586510229
5813,0.0488758516
5814,0.0586510229
5815,0.0586510229
5816,0.0488758516
5817,0.0488758516
5818,0.0488758516
5819,0.0684261989
5820,0.0684261989
5821,0.0684261989
5822,0.0977517032
5823,0.1075268864
5824,0.1270772218
5825,0.1270772218
5826,0.1661779165
5827,0.1759530782
5828,0.1466275596
5829,0.1466275596
5830,0.2248289346
5831,0.3128054618
5832,0.3030303001
5833,0.2834799575
5834,0.2541544437
5835,0.2248289346
5836,0.1955034160
5837,0.1857282543
5838,0.1759530782
5839,0.1564027309
5840,0.1270772218
5841,0.0977517032
5842,0.0879765415
5843,0.0782013654
5844,0.0684261989
5845,0.0488758516
5846,0.0586510229
5847,0.0488758516
5848,0.0488758516
5849,0.0391006832
5850,0.0391006832
5851,0.0391006832
5852,0.0391006832
5853,0.0391006832
5854,0.0293255119
5855,0.0293255119
5856,0.0293255119
5857,0.0391006832
5858,0.0391006832
5859,0.0391006832
5860,0.0391006832
5861,0.0391006832
5862,0.0391006832
5863,0.0488758516
5864,0.0586510229
5865,0.0586510229
5866,0.0879765415
5867,0.0879765415
5868,0.0879765415
5869,0.1173020482
5870,0.1368523955
5871,0.1955034160
5872,0.2541544437
5873,0.2541544437
5874,0.3030303001
5875,0.4105571746
5876,0.4496578693
5877,0.4398827075
5878,0.4594330310
5879,0.5083088874
5880,0.5474095821
5881,0.6451612472
5882,0.5865102291
5883,0.6549364089
5884,0.6940371513
5885,0.6353860855
5886,0.6158357620
5887,0.5669599056
5888,0.5278592109
5889,0.4692081928
5890,0.4789833545
5891,0.4887585639
5892,0.4496578693
5893,0.4007820129
5894,0.3714565038
5895,0.4105571746
5896,0.3812316703
5897,0.3519061565
5898,0.4007820129
5899,0.2737047910
5900,0.2443792819
5901,0.2150537729
5902,0.2052785873
5903,0.2052785873
5904,0.1955034160
5905,0.1857282543
5906,0.1564027309
5907,0.1466275596
5908,0.1564027309
5909,0.1368523955
5910,0.1173020482
5911,0.1075268864
5912,0.0977517032
5913,0.1075268864
5914,0.1075268864
5915,0.1075268864
5916,0.1368523955
5917,0.1270772218
5918,0.1075268864
5919,0.0977517032
5920,0.0879765415
5921,0.0879765415
5922,0.0782013654
5923,0.0782013654
5924,0.0879765415
5925,0.0782013654
5926,0.0782013654
5927,0.0782013654
5928,0.0782013654
5929,0.0782013654
5930,0.0782013654
5931,0.0782013654
5932,0.0684261989
5933,0.0684261989
5934,0.0684261989
5935,0.0684261989
5936,0.0586510229
5937,0.0586510229
5938,0.0586510229
5939,0.0586510229
5940,0.0586510229
5941,0.0586510229
5942,0.0586510229
5943,0.0488758516
5944,0.0488758516
5945,0.0488758516
5946,0.0586510229
5947,0.0488758516
5948,0.0391006832
5949,0.0488758516
5950,0.0684261989
5951,0.0782013654
5952,0.0879765415
5953,0.0879765415
5954,0.0684261989
5955,0.0684261989
5956,0.0586510229
5957,0.0684261989
5958,0.1075268864
5959,0.1368523955
5960,0.1661779165
5961,0.1759530782
5962,0.1368523955
5963,0.1270772218
5964,0.1173020482
5965,0.1564027309
5966,0.1955034160
5967,0.1661779165
5968,0.1368523955
5969,0.1075268864
5970,0.0977517032
5971,0.0879765415
5972,0.0782013654
5973,0.0684261989
5974,0.0684261989
5975,0.0684261989
5976,0.0488758516
5977,0.0391006832
5978,0.0391006832
5979,0.0293255119
5980,0.0391006832
5981,0.0293255119
5982,0.0293255119
5983,0.0391006832
5984,0.0391006832
5985,0.0293255119
5986,0.0293255119
5987,0.0293255119
5988,0.0195503416
5989,0.0195503416
5990,0.0097751703
5991,0.0097751703
5992,0.0195503416
5993,0.0195503416
5994,0.0195503416
5995,0.0195503416
5996,0.0195503416
5997,0.0195503416
5998,0.0293255119
5999,0.0488758516
6000,0.0586510229
6001,1.3391984701
6002,1.0948191833
6003,0.8895405769
6004,0.7331378459
6005,0.6060606002
6006,0.5083088874
6007,0.4398827075
6008,0.4105571746
6009,0.3616813421
6010,0.3323558330
6011,0.2932551193
6012,0.2737047910
6013,0.2639296054
6014,0.2541544437
6015,0.2248289346
6016,0.2346040964
6017,0.2346040964
6018,0.2737047910
6019,0.2834799575
6020,0.2932551193
6021,0.2932551193
6022,0.3616813421
6023,0.4203323364
6024,0.4496578693
6025,0.4594330310
6026,0.4496578693
6027,0.5962854385
6028,0.6744868278
6029,0.6647116661
6030,0.6647116661
6031,0.7233626842
6032,0.8895405769
6033,0.8699902534
6034,0.8504399299
6035,0.7820136547
6036,0.8406646728
6037,1.0459432601
6038,1.4956011772
6039,1.5933528900
6040,1.0948191833
6041,1.2903225421
6042,1.2316715717
6043,1.0850440216
6044,0.9677418708
6045,0.8602150917
6046,0.7722384929
6047,0.7038123130
6048,0.6060606002
6049,0.5278592109
6050,0.4496578693
6051,0.4301075458
6052,0.4398827075
6053,0.4594330310
6054,0.4105571746
6055,0.3616813421
6056,0.3616813421
6057,0.3225806236
6058,0.2834799575
6059,0.2443792819
6060,0.2932551193
6061,0.3323558330
6062,0.3616813421
6063,0.3128054618
6064,0.2932551193
6065,0.2834799575
6066,0.2639296054
6067,0.2443792819
6068,0.2346040964
6069,0.1955034160
6070,0.1857282543
6071,0.1857282543
6072,0.1759530782
6073,0.1759530782
6074,0.1759530782
6075,0.1955034160
6076,0.2248289346
6077,0.1955034160
6078,0.1857282543
6079,0.1661779165
6080,0.1466275596
6081,0.1466275596
6082,0.1368523955
6083,0.1564027309
6084,0.1466275596
6085,0.1564027309
6086,0.1466275596
6087,0.1270772218
6088,0.1466275596
6089,0.1368523955
6090,0.1368523955
6091,0.1466275596
6092,0.1466275596
6093,0.1661779165
6094,0.1661779165
6095,0.1564027309
6096,0.1857282543
6097,0.2150537729
6098,0.2248289346
6099,0.2248289346
6100,0.2052785873
6101,0.1955034160
6102,0.1759530782
6103,0.1564027309
6104,0.1564027309
6105,0.1466275596
6106,0.1466275596
6107,0.1368523955
6108,0.1368523955
6109,0.1368523955
6110,0.1270772218
6111,0.1368523955
6112,0.1368523955
6113,0.1368523955
6114,0.1368523955
6115,0.1270772218
6116,0.1270772218
6117,0.1564027309
6118,0.2052785873
6119,0.2639296054
6120,0.2737047910
6121,0.2248289346
6122,0.1661779165
6123,0.1368523955
6124,0.1368523955
6125,0.1368523955
6126,0.1270772218
6127,0.1270772218
6128,0.1270772218
6129,0.1173020482
6130,0.1173020482
6131,0.1075268864
6132,0.0977517032
6133,0.0782013654
6134,0.0977517032
6135,0.0879765415
6136,0.0977517032
6137,0.0879765415
6138,0.0977517032
6139,0.0879765415
6140,0.0879765415
6141,0.0977517032
6142,0.0977517032
6143,0.1075268864
6144,0.0977517032
6145,0.0977517032
6146,0.0977517032
6147,0.1173020482
6148,0.1368523955
6149,0.1368523955
6150,0.1661779165
6151,0.1661779165
6152,0.1857282543
6153,0.1955034160
6154,0.2052785873
6155,0.1955034160
6156,0.1955034160
6157,0.1857282543
6158,0.2150537729
6159,0.2052785873
6160,0.2150537729
6161,0.2150537729
6162,0.2346040964
6163,0.2737047910
6164,0.3030303001
6165,0.3225806236
6166,0.3323558330
6167,0.4887585639
6168,0.5180840492
6169,0.6451612472
6170,0.7331378459
6171,0.9677418708
6172,0.8993157386
6173,1.2023460865
6174,1.1045943498
6175,1.0654937028
6176,1.1730204820
6177,1.1339198350
6178,0.9579667091
6179,0.8406646728
6180,0.7526881694
6181,0.6744868278
6182,0.6744868278
6183,0.7038123130
6184,0.6158357620
6185,0.5669599056
6186,0.5278592109
6187,0.4594330310
6188,0.4105571746
6189,0.3616813421
6190,0.3323558330
6191,0.3225806236
6192,0.3225806236
6193,0.2932551193
6194,0.2639296054
6195,0.2834799575
6196,0.3323558330
6197,0.3030303001
6198,0.3030303001
6199,0.2834799575
6200,0.2737047910
6201,0.2541544437
6202,0.2248289346
6203,0.1955034160
6204,0.1661779165
6205,0.1759530782
6206,0.2150537729
6207,0.2346040964
6208,0.1955034160
6209,0.1857282543
6210,0.2150537729
6211,0.2052785873
6212,0.2052785873
6213,0.2052785873
6214,0.1955034160
6215,0.1955034160
6216,0.2150537729
6217,0.1955034160
6218,0.1759530782
6219,0.1857282543
6220,0.1857282543
6221,0.1955034160
6222,0.1759530782
6223,0.1955034160
6224,0.1759530782
6225,0.1564027309
6226,0.1661779165
6227,0.1759530782
6228,0.1759530782
6229,0.1857282543
6230,0.1857282543
6231,0.1759530782
6232,0.1759530782
6233,0.1661779165
6234,0.1564027309
6235,0.1466275596
6236,0.1368523955
6237,0.1270772218
6238,0.1368523955
6239,0.1564027309
6240,0.1661779165
6241,0.1564027309
6242,0.1466275596
6243,0.1466275596
6244,0.1368523955
6245,0.1368523955
6246,0.1368523955
6247,0.1270772218
6248,0.1270772218
6249,0.1173020482
6250,0.1173020482
6251,0.1173020482
6252,0.1173020482
6253,0.1173020482
6254,0.1173020482
6255,0.1270772218
6256,0.1270772218
6257,0.1075268864
6258,0.1075268864
6259,0.0977517032
6260,0.0977517032
6261,0.0879765415
6262,0.0977517032
6263,0.0879765415
6264,0.0879765415
6265,0.0977517032
6266,0.0977517032
6267,0.0977517032
6268,0.1075268864
6269,0.1075268864
6270,0.1173020482
6271,0.1075268864
6272,0.1075268864
6273,0.1075268864
6274,0.0977517032
6275,0.0879765415
6276,0.0879765415
6277,0.0879765415
6278,0.0879765415
6279,0.0879765415
6280,0.0782013654
6281,0.0782013654
6282,0.0782013654
6283,0.0782013654
6284,0.0782013654
6285,0.0782013654
6286,0.0879765415
6287,0.0782013654
6288,0.0782013654
6289,0.0879765415
6290,0.0782013654
6291,0.0782013654
6292,0.0977517032
6293,0.1173020482
6294,0.1368523955
6295,0.1466275596
6296,0.1564027309
6297,0.1564027309
6298,0.1759530782
6299,0.1955034160
6300,0.2052785873
6301,0.2248289346
6302,0.2346040964
6303,0.2443792819
6304,0.2443792819
6305,0.2639296054
6306,0.2443792819
6307,0.2541544437
6308,0.2932551193
6309,0.3128054618
6310,0.3323558330
6311,0.3225806236
6312,0.3714565038
6313,0.3519061565
6314,0.3616813421
6315,0.4789833545
6316,0.5180840492
6317,0.6158357620
6318,0.6940371513
6319,0.6158357620
6320,0.6549364089
6321,0.6647116661
6322,0.9188660621
6323,1.5835777282
6324,1.9159335136
6325,2.1407625675
6326,1.9550342559
6327,1.6226783752
6328,1.3685239553
6329,1.6226783752
6330,1.0654937028
6331,0.9677418708
6332,0.9188660621
6333,0.8211143493
6334,0.7233626842
6335,0.6256109237
6336,0.5669599056
6337,0.4985337257
6338,0.4496578693
6339,0.3812316703
6340,0.3421309947
6341,0.3421309947
6342,0.3421309947
6343,0.2737047910
6344,0.3128054618
6345,0.2834799575
6346,0.2639296054
6347,0.2541544437
6348,0.2443792819
6349,0.2150537729
6350,0.1759530782
6351,0.1759530782
6352,0.1661779165
6353,0.1564027309
6354,0.1661779165
6355,0.1955034160
6356,0.2443792819
6357,0.3030303001
6358,0.2932551193
6359,0.3030303001
6360,0.3323558330
6361,0.3323558330
6362,0.3421309947
6363,0.3323558330
6364,0.3128054618
6365,0.3030303001
6366,0.2737047910
6367,0.2541544437
6368,0.2248289346
6369,0.2248289346
6370,0.2248289346
6371,0.2052785873
6372,0.2150537729
6373,0.2248289346
6374,0.2150537729
6375,0.2248289346
6376,0.2150537729
6377,0.2052785873
6378,0.1857282543
6379,0.1564027309
6380,0.1857282543
6381,0.1955034160
6382,0.1955034160
6383,0.1759530782
6384,0.1759530782
6385,0.1661779165
6386,0.1759530782
6387,0.1661779165
6388,0.1759530782
6389,0.1759530782
6390,0.1759530782
6391,0.1661779165
6392,0.1368523955
6393,0.1661779165
6394,0.1466275596
6395,0.1368523955
6396,0.1466275596
6397,0.1466275596
6398,0.1564027309
6399,0.2052785873
6400,0.2443792819
6401,0.2541544437
6402,0.9970674514
6403,0.9384163856
6404,0.9384163856
6405,0.9481915473
6406,0.9286412239
6407,1.1143695116
6408,0.6549364089
6409,1.0459432601
6410,1.1143695116
6411,1.0557184219
6412,0.9970674514
6413,0.8602150917
6414,0.8699902534
6415,0.8308895111
6416,1.3294233083
6417,1.6226783752
6418,0.1564027309
6419,0.1564027309
6420,0.1564027309
6421,0.1564027309
6422,0.1466275596
6423,0.1466275596
6424,0.1368523955
6425,0.1759530782
6426,0.1857282543
6427,0.1759530782
6428,0.1857282543
6429,0.1955034160
6430,0.2737047910
6431,0.3519061565
6432,0.4105571746
6433,0.3714565038
6434,0.4007820129
6435,0.4105571746
6436,0.4007820129
6437,0.4301075458
6438,0.4203323364
6439,0.4203323364
6440,0.4594330310
6441,0.4692081928
6442,0.5278592109
6443,0.5865102291
6444,0.6647116661
6445,0.7429130077
6446,1.0654937028
6447,1.1534701585
6448,1.0654937028
6449,0.4105571746
6450,0.4594330310
6451,0.4496578693
6452,0.4789833545
6453,0.5278592109
6454,0.8602150917
6455,1.0459432601
6456,1.3391984701
6457,1.2707722187
6458,1.2316715717
6459,1.0948191833
6460,1.0361680984
6461,1.0361680984
6462,1.2512218952
6463,1.3587487936
6464,1.3000977039
6465,1.6520038604
6466,1.8670577049
6467,1.7693059444
6468,1.4467253684
6469,1.2707722187
6470,1.1632453203
6471,1.0752688646
6472,0.9384163856
6473,0.8113391876
6474,0.7038123130
6475,0.6647116661
6476,0.5865102291
6477,0.5474095821
6478,0.4985337257
6479,0.4203323364
6480,0.3714565038
6481,0.3421309947
6482,0.3225806236
6483,0.3225806236
6484,0.2932551193
6485,0.2932551193
6486,0.2834799575
6487,0.2834799575
6488,0.2639296054
6489,0.2639296054
6490,0.2639296054
6491,0.2834799575
6492,0.2737047910
6493,0.3128054618
6494,0.2932551193
6495,0.2737047910
6496,0.3225806236
6497,0.3421309947
6498,0.3225806236
6499,0.3030303001
6500,0.3030303001
6501,0.3128054618
6502,0.3030303001
6503,0.2639296054
6504,0.2541544437
6505,0.2346040964
6506,0.2150537729
6507,0.2052785873
6508,0.2150537729
6509,0.2150537729
6510,0.2150537729
6511,0.2052785873
6512,0.1857282543
6513,0.2052785873
6514,0.1857282543
6515,0.1857282543
6516,0.1759530782
6517,0.1857282543
6518,0.1857282543
6519,0.1564027309
6520,0.1661779165
6521,0.1759530782
6522,0.1955034160
6523,0.1759530782
6524,0.1661779165
6525,0.1857282543
6526,0.1857282543
6527,0.1857282543
6528,0.2052785873
6529,0.1955034160
6530,0.1955034160
6531,0.1857282543
6532,0.1759530782
6533,0.1661779165
6534,0.1564027309
6535,0.1466275596
6536,0.1466275596
6537,0.1270772218
6538,0.1270772218
6539,0.1270772218
6540,0.1173020482
6541,0.1270772218
6542,0.1368523955
6543,0.1173020482
6544,0.1173020482
6545,0.1173020482
6546,0.0977517032
6547,0.1075268864
6548,0.1173020482
6549,0.1173020482
6550,0.1173020482
6551,0.1173020482
6552,0.1075268864
6553,0.0977517032
6554,0.1075268864
6555,0.1075268864
6556,0.0977517032
6557,0.0977517032
6558,0.0879765415
6559,0.0977517032
6560,0.0977517032
6561,0.1075268864
6562,0.1075268864
6563,0.1075268864
6564,0.1075268864
6565,0.0977517032
6566,0.1075268864
6567,0.1173020482
6568,0.1368523955
6569,0.1368523955
6570,0.1368523955
6571,0.1270772218
6572,0.1368523955
6573,0.2052785873
6574,0.2052785873
6575,0.1955034160
6576,0.2443792819
6577,0.2737047910
6578,0.2834799575
6579,0.3128054618
6580,0.3128054618
6581,0.3323558330
6582,0.3616813421
6583,0.3519061565
6584,0.3323558330
6585,0.3616813421
6586,0.3519061565
6587,0.3714565038
6588,0.5083088874
6589,0.5376344203
6590,0.4985337257
6591,0.5083088874
6592,0.6158357620
6593,0.6256109237
6594,0.9677418708
6595,1.2023460865
6596,0.7722384929
6597,0.7526881694
6598,0.7624633312
6599,0.7526881694
6600,0.7135874748
6601,0.7233626842
6602,0.7820136547
6603,0.7526881694
6604,0.7233626842
6605,0.6451612472
6606,0.6451612472
6607,0.6451612472
6608,0.5767350673
6609,0.5083088874
6610,0.4398827075
6611,0.3910068321
6612,0.3714565038
6613,0.4007820129
6614,0.4203323364
6615,0.4692081928
6616,0.4398827075
6617,0.3812316703
6618,0.3323558330
6619,0.2932551193
6620,0.3616813421
6621,0.4496578693
6622,0.4007820129
6623,0.4007820129
6624,0.3421309947
6625,0.3714565038
6626,0.3616813421
6627,0.3519061565
6628,0.3225806236
6629,0.2834799575
6630,0.2541544437
6631,0.2346040964
6632,0.2346040964
6633,0.2541544437
6634,0.2248289346
6635,0.2052785873
6636,0.2248289346
6637,0.2150537729
6638,0.1955034160
6639,0.2248289346
6640,2.5024437904
6641,0.1955034160
6642,0.1857282543
6643,0.1661779165
6644,0.1661779165
6645,0.1661779165
6646,0.1564027309
6647,0.1564027309
6648,0.1661779165
6649,0.1368523955
6650,0.1368523955
6651,0.1270772218
6652,0.1270772218
6653,0.1564027309
6654,0.1466275596
6655,0.1368523955
6656,0.1368523955
6657,0.1368523955
6658,0.1368523955
6659,0.1368523955
6660,0.1466275596
6661,0.1368523955
6662,0.1270772218
6663,0.1270772218
6664,0.1270772218
6665,0.1173020482
6666,0.1075268864
6667,0.1173020482
6668,0.1270772218
6669,0.1270772218
6670,0.1564027309
6671,0.1564027309
6672,0.1759530782
6673,0.1661779165
6674,0.1564027309
6675,0.1564027309
6676,0.1368523955
6677,0.1173020482
6678,0.1075268864
6679,0.1075268864
6680,0.1075268864
6681,0.0977517032
6682,0.1173020482
6683,0.0879765415
6684,0.0782013654
6685,0.0782013654
6686,0.0586510229
6687,0.0586510229
6688,0.0782013654
6689,0.0684261989
6690,0.0586510229
6691,0.0684261989
6692,0.0586510229
6693,0.0586510229
6694,0.0782013654
6695,0.0586510229
6696,0.0684261989
6697,0.0684261989
6698,1.0557184219
6699,1.1436949968
6700,1.0263929367
6701,1.2707722187
6702,1.0752688646
6703,0.9970674514
6704,1.1534701585
6705,1.1730204820
6706,1.3196481466
6707,1.1632453203
6708,1.0654937028
6709,0.2248289346
6710,0.1955034160
6711,0.1857282543
6712,0.1857282543
6713,0.1955034160
6714,0.2052785873
6715,0.1955034160
6716,0.2541544437
6717,0.2834799575
6718,0.2834799575
6719,0.2834799575
6720,0.3128054618
6721,0.4692081928
6722,0.6256109237
6723,0.6744868278
6724,0.9090909004
6725,1.4076246261
6726,1.4760508537
6727,1.3782991170
