0,0.1955034160
1,0.8211143493
2,1.1045943498
3,1.2316715717
4,1.2707722187
5,1.1730204820
6,0.9579667091
7,0.8113391876
8,0.6744868278
9,0.5571847438
10,0.4692081928
11,0.4007820129
12,0.3323558330
13,0.2834799575
14,0.2346040964
15,0.2150537729
16,0.1955034160
17,0.1759530782
18,0.1564027309
19,0.1270772218
20,0.1075268864
21,0.0977517032
22,0.0879765415
23,0.0782013654
24,0.0684261989
25,0.0684261989
26,0.0586510229
27,0.0586510229
28,0.0586510229
29,0.0488758516
30,0.0391006832
31,0.0391006832
32,0.0391006832
33,0.0391006832
34,0.0391006832
35,0.0391006832
36,0.0391006832
37,0.0391006832
38,0.0391006832
39,0.0293255119
40,0.0293255119
41,0.0391006832
42,0.0391006832
43,0.0391006832
44,0.0293255119
45,0.0293255119
46,0.0293255119
47,0.0293255119
48,0.0293255119
49,0.0293255119
50,0.0391006832
51,0.0391006832
52,0.0391006832
53,0.0488758516
54,0.0391006832
55,0.0391006832
56,0.0488758516
57,0.0488758516
58,0.0488758516
59,0.0684261989
60,0.0684261989
61,0.0782013654
62,0.0782013654
63,0.0977517032
64,0.1173020482
65,0.1466275596
66,0.1564027309
67,0.2150537729
68,0.2248289346
69,0.2150537729
70,0.2052785873
71,0.1857282543
72,0.1857282543
73,0.2248289346
74,0.2248289346
75,0.2248289346
76,0.3225806236
77,0.2932551193
78,0.2737047910
79,0.2346040964
80,0.2052785873
81,0.2248289346
82,0.2737047910
83,0.2541544437
84,0.2346040964
85,0.2052785873
86,0.1759530782
87,0.1661779165
88,0.1857282543
89,0.1759530782
90,0.1564027309
91,0.1466275596
92,0.1270772218
93,0.1270772218
94,0.1075268864
95,0.0977517032
96,0.0879765415
97,0.0879765415
98,0.0782013654
99,0.0684261989
100,0.0684261989
101,0.0586510229
102,0.0488758516
103,0.0488758516
104,0.0391006832
105,0.0391006832
106,0.0391006832
107,0.0391006832
108,0.0391006832
109,0.0391006832
110,0.0391006832
111,0.0488758516
112,0.0586510229
113,0.0879765415
114,0.0977517032
115,0.0879765415
116,0.0684261989
117,0.0684261989
118,0.0586510229
119,0.0488758516
120,0.0391006832
121,0.0391006832
122,0.0293255119
123,0.0195503416
124,0.0293255119
125,0.0293255119
126,0.0195503416
127,0.0293255119
128,0.0293255119
129,0.0293255119
130,0.0293255119
131,0.0293255119
132,0.0293255119
133,0.0195503416
134,0.0195503416
135,0.0195503416
136,0.0293255119
137,0.0488758516
138,0.0684261989
139,0.0977517032
140,0.0879765415
141,0.0782013654
142,0.0782013654
143,0.0977517032
144,0.0782013654
145,0.0879765415
146,0.0684261989
147,0.0586510229
148,0.0586510229
149,0.0488758516
150,0.0488758516
151,0.0391006832
152,0.0586510229
153,0.0488758516
154,0.0586510229
155,0.0488758516
156,0.0684261989
157,0.0684261989
158,0.0684261989
159,0.0586510229
160,0.0586510229
161,0.0586510229
162,0.0488758516
163,0.0586510229
164,0.0684261989
165,0.0684261989
166,0.0684261989
167,0.0684261989
168,0.0488758516
169,0.0488758516
170,0.0488758516
171,0.0488758516
172,0.0391006832
173,0.0293255119
174,0.0293255119
175,0.0293255119
176,0.0293255119
177,0.0195503416
178,0.0293255119
179,0.0488758516
180,0.0488758516
181,0.0586510229
182,0.0488758516
183,0.0391006832
184,0.0488758516
185,0.0586510229
186,0.0586510229
187,0.0684261989
188,0.0782013654
189,0.0684261989
190,0.0684261989
191,0.0684261989
192,0.0782013654
193,0.0782013654
194,0.0879765415
195,0.0684261989
196,0.0684261989
197,0.0684261989
198,0.0586510229
199,0.0586510229
200,0.0488758516
201,0.0488758516
202,0.0391006832
203,0.0391006832
204,0.0391006832
205,0.0391006832
206,0.0391006832
207,0.0391006832
208,0.0391006832
209,0.0391006832
210,0.0488758516
211,0.0391006832
212,0.0488758516
213,0.0488758516
214,0.0586510229
215,0.0684261989
216,0.0684261989
217,0.0684261989
218,0.0684261989
219,0.0586510229
220,0.0586510229
221,0.0586510229
222,0.0684261989
223,0.0684261989
224,0.0684261989
225,0.0586510229
226,0.0782013654
227,0.0782013654
228,0.0977517032
229,0.0977517032
230,0.1075268864
231,0.1075268864
232,0.0977517032
233,0.0879765415
234,0.0977517032
235,0.0977517032
236,0.1075268864
237,0.0977517032
238,0.0977517032
239,0.0879765415
240,0.0782013654
241,0.0782013654
242,0.0782013654
243,0.0879765415
244,0.0977517032
245,0.0879765415
246,0.0879765415
247,0.0782013654
248,0.0782013654
249,0.0782013654
250,0.0684261989
251,0.0684261989
252,0.0684261989
253,0.0586510229
254,0.0488758516
255,0.0488758516
256,0.0391006832
257,0.0391006832
258,0.0293255119
259,0.0293255119
260,0.0293255119
261,0.0293255119
262,0.0195503416
263,0.0195503416
264,0.0195503416
265,0.0293255119
266,0.0293255119
267,0.0293255119
268,0.0293255119
269,0.0195503416
270,0.0293255119
271,0.0195503416
272,0.0195503416
273,0.0195503416
274,0.0195503416
275,0.0195503416
276,0.0195503416
277,0.0195503416
278,0.0195503416
279,0.0195503416
280,0.0195503416
281,0.0195503416
282,0.0195503416
283,0.0195503416
284,0.0195503416
285,0.0195503416
286,0.0195503416
287,0.0195503416
288,0.0195503416
289,0.0195503416
290,0.0195503416
291,0.0195503416
292,0.0195503416
293,0.0097751703
294,0.0195503416
295,0.0195503416
296,0.0195503416
297,0.0195503416
298,0.0195503416
299,0.0195503416
300,0.0293255119
301,0.0293255119
302,0.0293255119
303,0.0293255119
304,0.0391006832
305,0.0391006832
306,0.0391006832
307,0.0293255119
308,0.0293255119
309,0.0391006832
310,0.0391006832
311,0.0293255119
312,0.0293255119
313,0.0293255119
314,0.0293255119
315,0.0195503416
316,0.0097751703
317,0.0097751703
318,0.0195503416
319,0.0097751703
320,0.0097751703
321,0.0097751703
322,0.0195503416
323,0.0097751703
324,0.0195503416
325,0.0097751703
326,0.0195503416
327,0.0195503416
328,0.0195503416
329,0.0097751703
330,0.0097751703
331,0.0097751703
332,0.0097751703
333,0.0097751703
334,0.0097751703
335,0.0195503416
336,0.0195503416
337,0.0097751703
338,0.0097751703
339,0.0195503416
340,0.0195503416
341,0.0097751703
342,0.0195503416
343,0.0195503416
344,0.0195503416
345,0.0195503416
346,0.0195503416
347,0.0195503416
348,0.0293255119
349,0.0195503416
350,0.0195503416
351,0.0293255119
352,0.0195503416
353,0.0293255119
354,0.0195503416
355,0.0195503416
356,0.0391006832
357,0.0391006832
358,0.0391006832
359,0.0391006832
360,0.0293255119
361,0.0391006832
362,0.0293255119
363,0.0293255119
364,0.0293255119
365,0.0293255119
366,0.0293255119
367,0.0293255119
368,0.0293255119
369,0.0391006832
370,0.0391006832
371,0.0391006832
372,0.0391006832
373,0.0488758516
374,0.0586510229
375,0.0586510229
376,0.0684261989
377,0.0586510229
378,0.0782013654
379,0.1270772218
380,0.1661779165
381,0.1759530782
382,0.1564027309
383,0.1368523955
384,0.1173020482
385,0.1075268864
386,0.1173020482
387,0.1075268864
388,0.1075268864
389,0.1075268864
390,0.1270772218
391,0.1466275596
392,0.1759530782
393,0.1661779165
394,0.1466275596
395,0.1270772218
396,0.1075268864
397,0.0879765415
398,0.0782013654
399,0.0684261989
400,0.0684261989
401,0.0684261989
402,0.0684261989
403,0.0586510229
404,0.0586510229
405,0.0488758516
406,0.0488758516
407,0.0488758516
408,0.0488758516
409,0.0391006832
410,0.0391006832
411,0.0391006832
412,0.0391006832
413,0.0391006832
414,0.0391006832
415,0.0391006832
416,0.0391006832
417,0.0488758516
418,0.0782013654
419,0.0879765415
420,0.0879765415
421,0.0782013654
422,0.0684261989
423,0.0684261989
424,0.0586510229
425,0.0586510229
426,0.0488758516
427,0.0488758516
428,0.0488758516
429,0.0391006832
430,0.0293255119
431,0.0293255119
432,0.0195503416
433,0.0293255119
434,0.0293255119
435,0.0293255119
436,0.0293255119
437,0.0195503416
438,0.0195503416
439,0.0195503416
440,0.0195503416
441,0.0293255119
442,0.0293255119
443,0.0195503416
444,0.0195503416
445,0.0195503416
446,0.0195503416
447,0.0293255119
448,0.0195503416
449,0.0195503416
450,0.0195503416
451,0.0293255119
452,0.0391006832
453,0.0293255119
454,0.0293255119
455,0.0293255119
456,0.0293255119
457,0.0293255119
458,0.0195503416
459,0.0391006832
460,0.0488758516
461,0.0488758516
462,0.0391006832
463,0.0391006832
464,0.0391006832
465,0.0293255119
466,0.0293255119
467,0.0293255119
468,0.0293255119
469,0.0195503416
470,0.0195503416
471,0.0195503416
472,0.0195503416
473,0.0195503416
474,0.0195503416
475,0.0293255119
476,0.0293255119
477,0.0195503416
478,0.0195503416
479,0.0195503416
480,0.0097751703
481,0.0195503416
482,0.0097751703
483,0.0097751703
484,0.0097751703
485,0.0097751703
486,0.0195503416
487,0.0097751703
488,0.0097751703
489,0.0097751703
490,0.0097751703
491,0.0097751703
492,0.0195503416
493,0.0195503416
494,0.0195503416
495,0.0195503416
496,0.0195503416
497,0.0195503416
498,0.0293255119
499,0.0293255119
500,0.0293255119
501,0.0195503416
502,0.0195503416
503,0.0293255119
504,0.0293255119
505,0.0293255119
506,0.0391006832
507,0.0391006832
508,0.0391006832
509,0.0391006832
510,0.0391006832
511,0.0391006832
512,0.0391006832
513,0.0293255119
514,0.0391006832
515,0.0488758516
516,0.0488758516
517,0.0391006832
518,0.0391006832
519,0.0391006832
520,0.0391006832
521,0.0391006832
522,0.0391006832
523,0.0391006832
524,0.0391006832
525,0.0488758516
526,0.0586510229
527,0.0488758516
528,0.0488758516
529,0.0586510229
530,0.0782013654
531,0.1368523955
532,0.1564027309
533,0.1661779165
534,0.1466275596
535,0.1466275596
536,0.1661779165
537,0.1857282543
538,0.2443792819
539,0.2248289346
540,0.1857282543
541,0.1564027309
542,0.1368523955
543,0.1270772218
544,0.1368523955
545,0.1564027309
546,0.1466275596
547,0.1173020482
548,0.1075268864
549,0.0879765415
550,0.0782013654
551,0.0879765415
552,0.0782013654
553,0.0684261989
554,0.0684261989
555,0.0586510229
556,0.0586510229
557,0.0488758516
558,0.0488758516
559,0.0586510229
560,0.0488758516
561,0.0391006832
562,0.0293255119
563,0.0293255119
564,0.0293255119
565,0.0293255119
566,0.0293255119
567,0.0293255119
568,0.0586510229
569,0.0782013654
570,0.0684261989
571,0.0684261989
572,0.0684261989
573,0.0684261989
574,0.0782013654
575,0.0684261989
576,0.0586510229
577,0.0586510229
578,0.0488758516
579,0.0391006832
580,0.0391006832
581,0.0391006832
582,0.0391006832
583,0.0391006832
584,0.0391006832
585,0.0391006832
586,0.0391006832
587,0.0391006832
588,0.0293255119
589,0.0293255119
590,0.0293255119
591,0.0293255119
592,0.0293255119
593,0.0293255119
594,0.0195503416
595,0.0195503416
596,0.0195503416
597,0.0195503416
598,0.0293255119
599,0.0195503416
600,0.0195503416
601,0.0195503416
602,0.0195503416
603,0.0293255119
604,0.0293255119
605,0.0195503416
606,0.0195503416
607,0.0195503416
608,0.0195503416
609,0.0195503416
610,0.0097751703
611,0.0195503416
612,0.0097751703
613,0.0097751703
614,0.0097751703
615,0.0195503416
616,0.0097751703
617,0.0097751703
618,0.0097751703
619,0.0195503416
620,0.0195503416
621,0.0195503416
622,0.0293255119
623,0.0391006832
624,0.0293255119
625,0.0293255119
626,0.0293255119
627,0.0391006832
628,0.0391006832
629,0.0391006832
630,0.0391006832
631,0.0391006832
632,0.0391006832
633,0.0391006832
634,0.0293255119
635,0.0293255119
636,0.0293255119
637,0.0293255119
638,0.0293255119
639,0.0293255119
640,0.0195503416
641,0.0195503416
642,0.0195503416
643,0.0195503416
644,0.0293255119
645,0.0195503416
646,0.0195503416
647,0.0195503416
648,0.0195503416
649,0.0195503416
650,0.0195503416
651,0.0293255119
652,0.0293255119
653,0.0195503416
654,0.0293255119
655,0.0293255119
656,0.0293255119
657,0.0293255119
658,0.0293255119
659,0.0293255119
660,0.0293255119
661,0.0293255119
662,0.0293255119
663,0.0391006832
664,0.0391006832
665,0.0391006832
666,0.0391006832
667,0.0391006832
668,0.0488758516
669,0.0488758516
670,0.0488758516
671,0.0586510229
672,0.0488758516
673,0.0488758516
674,0.0488758516
675,0.0488758516
676,0.0488758516
677,0.0586510229
678,0.0586510229
679,0.0488758516
680,0.0586510229
681,0.0684261989
682,0.0684261989
683,0.0586510229
684,0.0684261989
685,0.0879765415
686,0.1075268864
687,0.1075268864
688,0.0879765415
689,0.0782013654
690,0.0879765415
691,0.0782013654
692,0.0684261989
693,0.0586510229
694,0.0488758516
695,0.0586510229
696,0.0488758516
697,0.0586510229
698,0.0488758516
699,0.0586510229
700,0.0684261989
701,0.0684261989
702,0.0782013654
703,0.0782013654
704,0.0782013654
705,0.0782013654
706,0.0782013654
707,0.0586510229
708,0.0488758516
709,0.0488758516
710,0.0391006832
711,0.0293255119
712,0.0293255119
713,0.0391006832
714,0.0391006832
715,0.0293255119
716,0.0293255119
717,0.0293255119
718,0.0293255119
719,0.0195503416
720,0.0195503416
721,0.0195503416
722,0.0195503416
723,0.0293255119
724,0.0195503416
725,0.0293255119
726,0.0293255119
727,0.0195503416
728,0.0195503416
729,0.0195503416
730,0.0293255119
731,0.0293255119
732,0.0293255119
733,0.0293255119
734,0.0195503416
735,0.0195503416
736,0.0293255119
737,0.0195503416
738,0.0391006832
739,0.0293255119
740,0.0293255119
741,0.0293255119
742,0.0293255119
743,0.0293255119
744,0.0293255119
745,0.0195503416
746,0.0195503416
747,0.0195503416
748,0.0195503416
749,0.0293255119
750,0.0195503416
751,0.0293255119
752,0.0293255119
753,0.0195503416
754,0.0293255119
755,0.0195503416
756,0.0195503416
757,0.0195503416
758,0.0097751703
759,0.0195503416
760,0.0195503416
761,0.0293255119
762,0.0293255119
763,0.0293255119
764,0.0293255119
765,0.0293255119
766,0.0293255119
767,0.0293255119
768,0.0293255119
769,0.0391006832
770,0.0488758516
771,0.0391006832
772,0.0391006832
773,0.0488758516
774,0.0488758516
775,0.0488758516
776,0.0391006832
777,0.0293255119
778,0.0293255119
779,0.0195503416
780,0.0293255119
781,0.0195503416
782,0.0293255119
783,0.0391006832
784,0.0293255119
785,0.0293255119
786,0.0195503416
787,0.0195503416
788,0.0195503416
789,0.0195503416
790,0.0195503416
791,0.0195503416
792,0.0195503416
793,0.0195503416
794,0.0195503416
795,0.0097751703
796,0.0097751703
797,0.0097751703
798,0.0097751703
799,0.0195503416
800,0.0097751703
801,0.0195503416
802,0.0097751703
803,0.0097751703
804,0.0097751703
805,0.0195503416
806,0.0097751703
807,0.0195503416
808,0.0195503416
809,0.0293255119
810,0.0195503416
811,0.0195503416
812,0.0195503416
813,0.0195503416
814,0.0195503416
815,0.0293255119
816,0.0293255119
817,0.0293255119
818,0.0195503416
819,0.0195503416
820,0.0195503416
821,0.0195503416
822,0.0293255119
823,0.0293255119
824,0.0293255119
825,0.0293255119
826,0.0293255119
827,0.0391006832
828,0.0293255119
829,0.0293255119
830,0.0293255119
831,0.0293255119
832,0.0195503416
833,0.0195503416
834,0.0293255119
835,0.0391006832
836,0.0391006832
837,0.0391006832
838,0.0391006832
839,0.0391006832
840,0.0391006832
841,0.0391006832
842,0.0488758516
843,0.0488758516
844,0.0488758516
845,0.0488758516
846,0.0391006832
847,0.0488758516
848,0.0586510229
849,0.0488758516
850,0.0684261989
851,0.0879765415
852,0.0879765415
853,0.0782013654
854,0.0684261989
855,0.0684261989
856,0.0684261989
857,0.0684261989
858,0.0586510229
859,0.0488758516
860,0.0488758516
861,0.0488758516
862,0.0391006832
863,0.0391006832
864,0.0391006832
865,0.0488758516
866,0.0488758516
867,0.0391006832
868,0.0488758516
869,0.0391006832
870,0.0391006832
871,0.0391006832
872,0.0391006832
873,0.0391006832
874,0.0391006832
875,0.0391006832
876,0.0293255119
877,0.0391006832
878,0.0391006832
879,0.0391006832
880,0.0293255119
881,0.0293255119
882,0.0391006832
883,0.0391006832
884,0.0293255119
885,0.0195503416
886,0.0195503416
887,0.0293255119
888,0.0195503416
889,0.0195503416
890,0.0195503416
891,0.0195503416
892,0.0293255119
893,0.0391006832
894,0.0293255119
895,0.0293255119
896,0.0391006832
897,0.0391006832
898,0.0391006832
899,0.0293255119
900,0.0391006832
901,0.0293255119
902,0.0293255119
903,0.0195503416
904,0.0293255119
905,0.0195503416
906,0.0195503416
907,0.0195503416
908,0.0195503416
909,0.0195503416
910,0.0097751703
911,0.0195503416
912,0.0293255119
913,0.0293255119
914,0.0195503416
915,0.0195503416
916,0.0195503416
917,0.0195503416
918,0.0195503416
919,0.0195503416
920,0.0195503416
921,0.0195503416
922,0.0195503416
923,0.0195503416
924,0.0097751703
925,0.0195503416
926,0.0195503416
927,0.0097751703
928,0.0097751703
929,0.0097751703
930,0.0097751703
931,0.0097751703
932,0.0097751703
933,0.0097751703
934,0.0195503416
935,0.0195503416
936,0.0195503416
937,0.0097751703
938,0.0195503416
939,0.0195503416
940,0.0195503416
941,0.0195503416
942,0.0195503416
943,0.0195503416
944,0.0195503416
945,0.0195503416
946,0.0195503416
947,0.0195503416
948,0.0195503416
949,0.0195503416
950,0.0195503416
951,0.0195503416
952,0.0293255119
953,0.0195503416
954,0.0293255119
955,0.0195503416
956,0.0195503416
957,0.0097751703
958,0.0097751703
959,0.0097751703
960,0.0195503416
961,0.0195503416
962,0.0195503416
963,0.0097751703
964,0.0097751703
965,0.0097751703
966,0.0097751703
967,0.0097751703
968,0.0195503416
969,0.0195503416
970,0.0293255119
971,0.0195503416
972,0.0293255119
973,0.0293255119
974,0.0195503416
975,0.0195503416
976,0.0195503416
977,0.0195503416
978,0.0195503416
979,0.0293255119
980,0.0293255119
981,0.0293255119
982,0.0195503416
983,0.0195503416
984,0.0195503416
985,0.0195503416
986,0.0195503416
987,0.0195503416
988,0.0195503416
989,0.0195503416
990,0.0195503416
991,0.0293255119
992,0.0293255119
993,0.0293255119
994,0.0293255119
995,0.0195503416
996,0.0293255119
997,0.0293255119
998,0.0293255119
999,0.0293255119
1000,0.0293255119
1001,0.2834799575
1002,0.2346040964
1003,0.1955034160
1004,0.1661779165
1005,0.1368523955
1006,0.1173020482
1007,0.1173020482
1008,0.1075268864
1009,0.1075268864
1010,0.0977517032
1011,0.0977517032
1012,0.0977517032
1013,0.1075268864
1014,0.1466275596
1015,0.1857282543
1016,0.2639296054
1017,0.3812316703
1018,0.3714565038
1019,0.3421309947
1020,0.2834799575
1021,0.2443792819
1022,0.1955034160
1023,0.1661779165
1024,0.1466275596
1025,0.1270772218
1026,0.1173020482
1027,0.1270772218
1028,0.1466275596
1029,0.1564027309
1030,0.1564027309
1031,0.1466275596
1032,0.1759530782
1033,0.1661779165
1034,0.1564027309
1035,0.1466275596
1036,0.1759530782
1037,0.1564027309
1038,0.1368523955
1039,0.1661779165
1040,0.2834799575
1041,0.3225806236
1042,0.2737047910
1043,0.2541544437
1044,0.2541544437
1045,0.2443792819
1046,0.2052785873
1047,0.1759530782
1048,0.1466275596
1049,0.1173020482
1050,0.1270772218
1051,0.1368523955
1052,0.1564027309
1053,0.1759530782
1054,0.1857282543
1055,0.1857282543
1056,0.1955034160
1057,0.1661779165
1058,0.1368523955
1059,0.1173020482
1060,0.0977517032
1061,0.0879765415
1062,0.0782013654
1063,0.0684261989
1064,0.0782013654
1065,0.1075268864
1066,0.0977517032
1067,0.0977517032
1068,0.0782013654
1069,0.0684261989
1070,0.0684261989
1071,0.0782013654
1072,0.0977517032
1073,0.1075268864
1074,0.1173020482
1075,0.1466275596
1076,0.1368523955
1077,0.1173020482
1078,0.1075268864
1079,0.1075268864
1080,0.0977517032
1081,0.0782013654
1082,0.0684261989
1083,0.0586510229
1084,0.0586510229
1085,0.0391006832
1086,0.0391006832
1087,0.0488758516
1088,0.0684261989
1089,0.0684261989
1090,0.0586510229
1091,0.0586510229
1092,0.0488758516
1093,0.0391006832
1094,0.0488758516
1095,0.0586510229
1096,0.0586510229
1097,0.0586510229
1098,0.0586510229
1099,0.0586510229
1100,0.0488758516
1101,0.0488758516
1102,0.0391006832
1103,0.0391006832
1104,0.0488758516
1105,0.0391006832
1106,0.0586510229
1107,0.0586510229
1108,0.0586510229
1109,0.0684261989
1110,0.0782013654
1111,0.0879765415
1112,0.0879765415
1113,0.0879765415
1114,0.0977517032
1115,0.1075268864
1116,0.1173020482
1117,0.1173020482
1118,0.1173020482
1119,0.1270772218
1120,0.1564027309
1121,0.1564027309
1122,0.1564027309
1123,0.1466275596
1124,0.1564027309
1125,0.1564027309
1126,0.1564027309
1127,0.1466275596
1128,0.1466275596
1129,0.1368523955
1130,0.1368523955
1131,0.1270772218
1132,0.1368523955
1133,0.1466275596
1134,0.1368523955
1135,0.1270772218
1136,0.1075268864
1137,0.1173020482
1138,0.1173020482
1139,0.1270772218
1140,0.1075268864
1141,0.1075268864
1142,0.1173020482
1143,0.0977517032
1144,0.1075268864
1145,0.1075268864
1146,0.1173020482
1147,0.1466275596
1148,0.1270772218
1149,0.1270772218
1150,0.1368523955
1151,0.1270772218
1152,0.1564027309
1153,0.1661779165
1154,0.1564027309
1155,0.1564027309
1156,0.1368523955
1157,0.1368523955
1158,0.1564027309
1159,0.1466275596
1160,0.1368523955
1161,0.1173020482
1162,0.1270772218
1163,0.1173020482
1164,0.1075268864
1165,0.0977517032
1166,0.0977517032
1167,0.0879765415
1168,0.0782013654
1169,0.0879765415
1170,0.0977517032
1171,0.0977517032
1172,0.1075268864
1173,0.0977517032
1174,0.1075268864
1175,0.1173020482
1176,0.1173020482
1177,0.1759530782
1178,0.2639296054
1179,0.3714565038
1180,0.3323558330
1181,0.2932551193
1182,0.2541544437
1183,0.2346040964
1184,0.2150537729
1185,0.1857282543
1186,0.1661779165
1187,0.1466275596
1188,0.1466275596
1189,0.1564027309
1190,0.1564027309
1191,0.1564027309
1192,0.1564027309
1193,0.2346040964
1194,0.2834799575
1195,0.2346040964
1196,0.2150537729
1197,0.2346040964
1198,0.2541544437
1199,0.2443792819
1200,0.2150537729
1201,0.1759530782
1202,0.1661779165
1203,0.1857282543
1204,0.1857282543
1205,0.1564027309
1206,0.1270772218
1207,0.1173020482
1208,0.1075268864
1209,0.0782013654
1210,0.0782013654
1211,0.0782013654
1212,0.0879765415
1213,0.1075268864
1214,0.1075268864
1215,0.0977517032
1216,0.1075268864
1217,0.0977517032
1218,0.0879765415
1219,0.0977517032
1220,0.0977517032
1221,0.0879765415
1222,0.0684261989
1223,0.0684261989
1224,0.0684261989
1225,0.0586510229
1226,0.0488758516
1227,0.0391006832
1228,0.0391006832
1229,0.0488758516
1230,0.0488758516
1231,0.0391006832
1232,0.0391006832
1233,0.0586510229
1234,0.0586510229
1235,0.0684261989
1236,0.0879765415
1237,0.0977517032
1238,0.0879765415
1239,0.0782013654
1240,0.0684261989
1241,0.0586510229
1242,0.0586510229
1243,0.0586510229
1244,0.0586510229
1245,0.0684261989
1246,0.0684261989
1247,0.0879765415
1248,0.0977517032
1249,0.0879765415
1250,0.0879765415
1251,0.0782013654
1252,0.0782013654
1253,0.0684261989
1254,0.0586510229
1255,0.0488758516
1256,0.0488758516
1257,0.0488758516
1258,0.0488758516
1259,0.0391006832
1260,0.0586510229
1261,0.0488758516
1262,0.0391006832
1263,0.0391006832
1264,0.0391006832
1265,0.0391006832
1266,0.0488758516
1267,0.0586510229
1268,0.0586510229
1269,0.0586510229
1270,0.0488758516
1271,0.0586510229
1272,0.0684261989
1273,0.0782013654
1274,0.0782013654
1275,0.0782013654
1276,0.0782013654
1277,0.0977517032
1278,0.1173020482
1279,0.1173020482
1280,0.1075268864
1281,0.1270772218
1282,0.1564027309
1283,0.2248289346
1284,0.2639296054
1285,0.2248289346
1286,0.2150537729
1287,0.2052785873
1288,0.1759530782
1289,0.1466275596
1290,0.1270772218
1291,0.1075268864
1292,0.0977517032
1293,0.0977517032
1294,0.0879765415
1295,0.0879765415
1296,0.0782013654
1297,0.0684261989
1298,0.0684261989
1299,0.0684261989
1300,0.0782013654
1301,0.0684261989
1302,0.0586510229
1303,0.0586510229
1304,0.0488758516
1305,0.0488758516
1306,0.0488758516
1307,0.0586510229
1308,0.0586510229
1309,0.0586510229
1310,0.0586510229
1311,0.0684261989
1312,0.0782013654
1313,0.0977517032
1314,0.0879765415
1315,0.0879765415
1316,0.1075268864
1317,0.1075268864
1318,0.1075268864
1319,0.0977517032
1320,0.0782013654
1321,0.0782013654
1322,0.0782013654
1323,0.0977517032
1324,0.0977517032
1325,0.0977517032
1326,0.0977517032
1327,0.1075268864
1328,0.0879765415
1329,0.0879765415
1330,0.0977517032
1331,0.1075268864
1332,0.1075268864
1333,0.0977517032
1334,0.0879765415
1335,0.0879765415
1336,0.2150537729
1337,0.3421309947
1338,0.3225806236
1339,0.2834799575
1340,0.2443792819
1341,0.2150537729
1342,0.1955034160
1343,0.1661779165
1344,0.1466275596
1345,0.1173020482
1346,0.0977517032
1347,0.0879765415
1348,0.0782013654
1349,0.0684261989
1350,0.0684261989
1351,0.0684261989
1352,0.0684261989
1353,0.0684261989
1354,0.0782013654
1355,0.0879765415
1356,0.0977517032
1357,0.1270772218
1358,0.1270772218
1359,0.1466275596
1360,0.2346040964
1361,0.2248289346
1362,0.2150537729
1363,0.1955034160
1364,0.1661779165
1365,0.1857282543
1366,0.1857282543
1367,0.1857282543
1368,0.1759530782
1369,0.1661779165
1370,0.1368523955
1371,0.1270772218
1372,0.1075268864
1373,0.1075268864
1374,0.0977517032
1375,0.0782013654
1376,0.0782013654
1377,0.0782013654
1378,0.0782013654
1379,0.0782013654
1380,0.0879765415
1381,0.0782013654
1382,0.0782013654
1383,0.0684261989
1384,0.0586510229
1385,0.0586510229
1386,0.0977517032
1387,0.1368523955
1388,0.1759530782
1389,0.1955034160
1390,0.1955034160
1391,0.2150537729
1392,0.2443792819
1393,0.3030303001
1394,0.3323558330
1395,0.3030303001
1396,0.3225806236
1397,0.3519061565
1398,0.4105571746
1399,0.3519061565
1400,0.2834799575
1401,0.2248289346
1402,0.1857282543
1403,0.1466275596
1404,0.1173020482
1405,0.1075268864
1406,0.0879765415
1407,0.0782013654
1408,0.0684261989
1409,0.0586510229
1410,0.0586510229
1411,0.0391006832
1412,0.0391006832
1413,0.0488758516
1414,0.0488758516
1415,0.0391006832
1416,0.0391006832
1417,0.0293255119
1418,0.0293255119
1419,0.0195503416
1420,0.0293255119
1421,0.0293255119
1422,0.0293255119
1423,0.0488758516
1424,0.0586510229
1425,0.0488758516
1426,0.0488758516
1427,0.0586510229
1428,0.0586510229
1429,0.0488758516
1430,0.0391006832
1431,0.0488758516
1432,0.0391006832
1433,0.0391006832
1434,0.0391006832
1435,0.0293255119
1436,0.0293255119
1437,0.0391006832
1438,0.0391006832
1439,0.0293255119
1440,0.0293255119
1441,0.0391006832
1442,0.0391006832
1443,0.0586510229
1444,0.0782013654
1445,0.0782013654
1446,0.0879765415
1447,0.1075268864
1448,0.1270772218
1449,0.1466275596
1450,0.1759530782
1451,0.1857282543
1452,0.2248289346
1453,0.2443792819
1454,0.2639296054
1455,0.2541544437
1456,0.2639296054
1457,0.2443792819
1458,0.2150537729
1459,0.1857282543
1460,0.1564027309
1461,0.1368523955
1462,0.1466275596
1463,0.1661779165
1464,0.1466275596
1465,0.1466275596
1466,0.1270772218
1467,0.1075268864
1468,0.0977517032
1469,0.0879765415
1470,0.0977517032
1471,0.1075268864
1472,0.1173020482
1473,0.1075268864
1474,0.0977517032
1475,0.0782013654
1476,0.0684261989
1477,0.0782013654
1478,0.0782013654
1479,0.0586510229
1480,0.0488758516
1481,0.0586510229
1482,0.0586510229
1483,0.0684261989
1484,0.0879765415
1485,0.0879765415
1486,0.0879765415
1487,0.0782013654
1488,0.0879765415
1489,0.0879765415
1490,0.0977517032
1491,0.1075268864
1492,0.1075268864
1493,0.1075268864
1494,0.1173020482
1495,0.0977517032
1496,0.1075268864
1497,0.1075268864
1498,0.1075268864
1499,0.1270772218
1500,0.1270772218
1501,0.1173020482
1502,0.1173020482
1503,0.1270772218
1504,0.1368523955
1505,0.1173020482
1506,0.1075268864
1507,0.1075268864
1508,0.0879765415
1509,0.0879765415
1510,0.0782013654
1511,0.0684261989
1512,0.0782013654
1513,0.0782013654
1514,0.0782013654
1515,0.0782013654
1516,0.0782013654
1517,0.0782013654
1518,0.0684261989
1519,0.0782013654
1520,0.0782013654
1521,0.0782013654
1522,0.0782013654
1523,0.0782013654
1524,0.0879765415
1525,0.0782013654
1526,0.0782013654
1527,0.0879765415
1528,0.0977517032
1529,0.0977517032
1530,0.1173020482
1531,0.1075268864
1532,0.1075268864
1533,0.0977517032
1534,0.0782013654
1535,0.0782013654
1536,0.0684261989
1537,0.0684261989
1538,0.0782013654
1539,0.0782013654
1540,0.0782013654
1541,0.0782013654
1542,0.0684261989
1543,0.0879765415
1544,0.0977517032
1545,0.0879765415
1546,0.0977517032
1547,0.1075268864
1548,0.0879765415
1549,0.0879765415
1550,0.0684261989
1551,0.0586510229
1552,0.0488758516
1553,0.0391006832
1554,0.0391006832
1555,0.0391006832
1556,0.0488758516
1557,0.0391006832
1558,0.0879765415
1559,0.1075268864
1560,0.1368523955
1561,0.1466275596
1562,0.1661779165
1563,0.1661779165
1564,0.1759530782
1565,0.1759530782
1566,0.2052785873
1567,0.1661779165
1568,0.1368523955
1569,0.1173020482
1570,0.1075268864
1571,0.0879765415
1572,0.0782013654
1573,0.0586510229
1574,0.0586510229
1575,0.0586510229
1576,0.0586510229
1577,0.0586510229
1578,0.0488758516
1579,0.0488758516
1580,0.0586510229
1581,0.0684261989
1582,0.0684261989
1583,0.0586510229
1584,0.0488758516
1585,0.0488758516
1586,0.0391006832
1587,0.0391006832
1588,0.0293255119
1589,0.0293255119
1590,0.0391006832
1591,0.0391006832
1592,0.0391006832
1593,0.0293255119
1594,0.0293255119
1595,0.0391006832
1596,0.0391006832
1597,0.0391006832
1598,0.0293255119
1599,0.0293255119
1600,0.0293255119
1601,0.0195503416
1602,0.0195503416
1603,0.0195503416
1604,0.0195503416
1605,0.0293255119
1606,0.0293255119
1607,0.0293255119
1608,0.0293255119
1609,0.0391006832
1610,0.0488758516
1611,0.0586510229
1612,0.0488758516
1613,0.0488758516
1614,0.0586510229
1615,0.0586510229
1616,0.0684261989
1617,0.0782013654
1618,0.0782013654
1619,0.0782013654
1620,0.0782013654
1621,0.0782013654
1622,0.0782013654
1623,0.0782013654
1624,0.0879765415
1625,0.0782013654
1626,0.0782013654
1627,0.0684261989
1628,0.0977517032
1629,0.0977517032
1630,0.1075268864
1631,0.1075268864
1632,0.1173020482
1633,0.1075268864
1634,0.0977517032
1635,0.1075268864
1636,0.1075268864
1637,0.1075268864
1638,0.0977517032
1639,0.0977517032
1640,0.1270772218
1641,0.1173020482
1642,0.1173020482
1643,0.1173020482
1644,0.1075268864
1645,0.0977517032
1646,0.0977517032
1647,0.0977517032
1648,0.1075268864
1649,0.1173020482
1650,0.1075268864
1651,0.1075268864
1652,0.0977517032
1653,0.0879765415
1654,0.0782013654
1655,0.0879765415
1656,0.0782013654
1657,0.0879765415
1658,0.0879765415
1659,0.0977517032
1660,0.0879765415
1661,0.0879765415
1662,0.0977517032
1663,0.0782013654
1664,0.0684261989
1665,0.0684261989
1666,0.0782013654
1667,0.0782013654
1668,0.0782013654
1669,0.0684261989
1670,0.0782013654
1671,0.0782013654
1672,0.0782013654
1673,0.0879765415
1674,0.0782013654
1675,0.0782013654
1676,0.0879765415
1677,0.0879765415
1678,0.0879765415
1679,0.0879765415
1680,0.0879765415
1681,0.0782013654
1682,0.0684261989
1683,0.0684261989
1684,0.0684261989
1685,0.0684261989
1686,0.0586510229
1687,0.0684261989
1688,0.0586510229
1689,0.0586510229
1690,0.0782013654
1691,0.0782013654
1692,0.0782013654
1693,0.0782013654
1694,0.0684261989
1695,0.0782013654
1696,0.0684261989
1697,0.0782013654
1698,0.0879765415
1699,0.0782013654
1700,0.0879765415
1701,0.1270772218
1702,0.1270772218
1703,0.1173020482
1704,0.1075268864
1705,0.1075268864
1706,0.1075268864
1707,0.0977517032
1708,0.0977517032
1709,0.0879765415
1710,0.0977517032
1711,0.0977517032
1712,0.0879765415
1713,0.0879765415
1714,0.0879765415
1715,0.0879765415
1716,0.0879765415
1717,0.0782013654
1718,0.0782013654
1719,0.0782013654
1720,0.0684261989
1721,0.0977517032
1722,0.1466275596
1723,0.1466275596
1724,0.1270772218
1725,0.1270772218
1726,0.1173020482
1727,0.1173020482
1728,0.1173020482
1729,0.1173020482
1730,0.0977517032
1731,0.0782013654
1732,0.0684261989
1733,0.0488758516
1734,0.0586510229
1735,0.0684261989
1736,0.0684261989
1737,0.0879765415
1738,0.1173020482
1739,0.1466275596
1740,0.1759530782
1741,0.1857282543
1742,0.1759530782
1743,0.1857282543
1744,0.2248289346
1745,0.2541544437
1746,0.2443792819
1747,0.1955034160
1748,0.1661779165
1749,0.1466275596
1750,0.1368523955
1751,0.1270772218
1752,0.1466275596
1753,0.1661779165
1754,0.1857282543
1755,0.1661779165
1756,0.1368523955
1757,0.1466275596
1758,0.1955034160
1759,0.3030303001
1760,0.3616813421
1761,0.3030303001
1762,0.2443792819
1763,0.1955034160
1764,0.1564027309
1765,0.1368523955
1766,0.1270772218
1767,0.1075268864
1768,0.0879765415
1769,0.0684261989
1770,0.0586510229
1771,0.0488758516
1772,0.0391006832
1773,0.0293255119
1774,0.0293255119
1775,0.0293255119
1776,0.0195503416
1777,0.0195503416
1778,0.0293255119
1779,0.0195503416
1780,0.0195503416
1781,0.0195503416
1782,0.0195503416
1783,0.0195503416
1784,0.0195503416
1785,0.0195503416
1786,0.0391006832
1787,0.0391006832
1788,0.0391006832
1789,0.0391006832
1790,0.0391006832
1791,0.0586510229
1792,0.0879765415
1793,0.1075268864
1794,0.1075268864
1795,0.1075268864
1796,0.0977517032
1797,0.0879765415
1798,0.1173020482
1799,0.1368523955
1800,0.1564027309
1801,0.1564027309
1802,0.1564027309
1803,0.1661779165
1804,0.1661779165
1805,0.1564027309
1806,0.1368523955
1807,0.1564027309
1808,0.2346040964
1809,0.3714565038
1810,0.3225806236
1811,0.2639296054
1812,0.2248289346
1813,0.1857282543
1814,0.1564027309
1815,0.1368523955
1816,0.1173020482
1817,0.0977517032
1818,0.0879765415
1819,0.0782013654
1820,0.0684261989
1821,0.0684261989
1822,0.0586510229
1823,0.0586510229
1824,0.0586510229
1825,0.0488758516
1826,0.0488758516
1827,0.0488758516
1828,0.0586510229
1829,0.0488758516
1830,0.0488758516
1831,0.0488758516
1832,0.0391006832
1833,0.0488758516
1834,0.0488758516
1835,0.0488758516
1836,0.0391006832
1837,0.0586510229
1838,0.0586510229
1839,0.0586510229
1840,0.0586510229
1841,0.0684261989
1842,0.0684261989
1843,0.0879765415
1844,0.0879765415
1845,0.0684261989
1846,0.0782013654
1847,0.0879765415
1848,0.0977517032
1849,0.0977517032
1850,0.1173020482
1851,0.1368523955
1852,0.1270772218
1853,0.1270772218
1854,0.1368523955
1855,0.1270772218
1856,0.1270772218
1857,0.1270772218
1858,0.1368523955
1859,0.1466275596
1860,0.1759530782
1861,0.1661779165
1862,0.1857282543
1863,0.2052785873
1864,0.3519061565
1865,0.3714565038
1866,0.3030303001
1867,0.2737047910
1868,0.2443792819
1869,0.2150537729
1870,0.1759530782
1871,0.1466275596
1872,0.1368523955
1873,0.1173020482
1874,0.1075268864
1875,0.0879765415
1876,0.0782013654
1877,0.0684261989
1878,0.0586510229
1879,0.0684261989
1880,0.0684261989
1881,0.0586510229
1882,0.0586510229
1883,0.0684261989
1884,0.0586510229
1885,0.0684261989
1886,0.0782013654
1887,0.0782013654
1888,0.0782013654
1889,0.0879765415
1890,0.0977517032
1891,0.0977517032
1892,0.0879765415
1893,0.0879765415
1894,0.0879765415
1895,0.0977517032
1896,0.1075268864
1897,0.1075268864
1898,0.1075268864
1899,0.1075268864
1900,0.0977517032
1901,0.1075268864
1902,0.1270772218
1903,0.1173020482
1904,0.1075268864
1905,0.1368523955
1906,0.1368523955
1907,0.1173020482
1908,0.1075268864
1909,0.0879765415
1910,0.0977517032
1911,0.0879765415
1912,0.0782013654
1913,0.0684261989
1914,0.0586510229
1915,0.0586510229
1916,0.0391006832
1917,0.0488758516
1918,0.0488758516
1919,0.0488758516
1920,0.0488758516
1921,0.0684261989
1922,0.0977517032
1923,0.1173020482
1924,0.1466275596
1925,0.1857282543
1926,0.2150537729
1927,0.2150537729
1928,0.2150537729
1929,0.2150537729
1930,0.2248289346
1931,0.2248289346
1932,0.2639296054
1933,0.2346040964
1934,0.2346040964
1935,0.2248289346
1936,0.1955034160
1937,0.1564027309
1938,0.1270772218
1939,0.0977517032
1940,0.0879765415
1941,0.0782013654
1942,0.0684261989
1943,0.0586510229
1944,0.0488758516
1945,0.0391006832
1946,0.0293255119
1947,0.0293255119
1948,0.0293255119
1949,0.0293255119
1950,0.0293255119
1951,0.0391006832
1952,0.0391006832
1953,0.0293255119
1954,0.0195503416
1955,0.0195503416
1956,0.0293255119
1957,0.0293255119
1958,0.0293255119
1959,0.0391006832
1960,0.0293255119
1961,0.0195503416
1962,0.0195503416
1963,0.0195503416
1964,0.0195503416
1965,0.0195503416
1966,0.0293255119
1967,0.0488758516
1968,0.0586510229
1969,0.0586510229
1970,0.0488758516
1971,0.0488758516
1972,0.0488758516
1973,0.0488758516
1974,0.0488758516
1975,0.0391006832
1976,0.0391006832
1977,0.0293255119
1978,0.0391006832
1979,0.0488758516
1980,0.0586510229
1981,0.0684261989
1982,0.0879765415
1983,0.0879765415
1984,0.0977517032
1985,0.0879765415
1986,0.0879765415
1987,0.0782013654
1988,0.0782013654
1989,0.0684261989
1990,0.0586510229
1991,0.0684261989
1992,0.0586510229
1993,0.0586510229
1994,0.0488758516
1995,0.0391006832
1996,0.0488758516
1997,0.0488758516
1998,0.0586510229
1999,0.0488758516
2000,0.0684261989
2001,1.1925709247
2002,0.9481915473
2003,0.7722384929
2004,0.6158357620
2005,0.4985337257
2006,0.4007820129
2007,0.3323558330
2008,0.2737047910
2009,0.2248289346
2010,0.1955034160
2011,0.1661779165
2012,0.1466275596
2013,0.1368523955
2014,0.1270772218
2015,0.1173020482
2016,0.1173020482
2017,0.0977517032
2018,0.0879765415
2019,0.0879765415
2020,0.0879765415
2021,0.0879765415
2022,0.0879765415
2023,0.0782013654
2024,0.0782013654
2025,0.0684261989
2026,0.0684261989
2027,0.0684261989
2028,0.0586510229
2029,0.0586510229
2030,0.0586510229
2031,0.0586510229
2032,0.0586510229
2033,0.0488758516
2034,0.0586510229
2035,0.0586510229
2036,0.0586510229
2037,0.0684261989
2038,0.0684261989
2039,0.0684261989
2040,0.0684261989
2041,0.0684261989
2042,0.0684261989
2043,0.0684261989
2044,0.0782013654
2045,0.0684261989
2046,0.0586510229
2047,0.0684261989
2048,0.0684261989
2049,0.0586510229
2050,0.0586510229
2051,0.0586510229
2052,0.0586510229
2053,0.0586510229
2054,0.0586510229
2055,0.0586510229
2056,0.0586510229
2057,0.0586510229
2058,0.0684261989
2059,0.0586510229
2060,0.0684261989
2061,0.0684261989
2062,0.0586510229
2063,0.0684261989
2064,0.0684261989
2065,0.0684261989
2066,0.0782013654
2067,0.0684261989
2068,0.0782013654
2069,0.0684261989
2070,0.0586510229
2071,0.0684261989
2072,0.0684261989
2073,0.0586510229
2074,0.0586510229
2075,0.0488758516
2076,0.0488758516
2077,0.0488758516
2078,0.0488758516
2079,0.0488758516
2080,0.0488758516
2081,0.0488758516
2082,0.0488758516
2083,0.0488758516
2084,0.0391006832
2085,0.0391006832
2086,0.0391006832
2087,0.0391006832
2088,0.0293255119
2089,0.0391006832
2090,0.0391006832
2091,0.0391006832
2092,0.0293255119
2093,0.0293255119
2094,0.0293255119
2095,0.0293255119
2096,0.0293255119
2097,0.0391006832
2098,0.0293255119
2099,0.0293255119
2100,0.0391006832
2101,0.0293255119
2102,0.0293255119
2103,0.0391006832
2104,0.0391006832
2105,0.0293255119
2106,0.0293255119
2107,0.0293255119
2108,0.0293255119
2109,0.0293255119
2110,0.0391006832
2111,0.0293255119
2112,0.0293255119
2113,0.0391006832
2114,0.0391006832
2115,0.0391006832
2116,0.0293255119
2117,0.0293255119
2118,0.0293255119
2119,0.0293255119
2120,0.0293255119
2121,0.0293255119
2122,0.0391006832
2123,0.0391006832
2124,0.0293255119
2125,0.0391006832
2126,0.0391006832
2127,0.0293255119
2128,0.0293255119
2129,0.0293255119
2130,0.0391006832
2131,0.0391006832
2132,0.0391006832
2133,0.0293255119
2134,0.0391006832
2135,0.0391006832
2136,0.0293255119
2137,0.0391006832
2138,0.0391006832
2139,0.0391006832
2140,0.0391006832
2141,0.0391006832
2142,0.0391006832
2143,0.0391006832
2144,0.0391006832
2145,0.0391006832
2146,0.0391006832
2147,0.0391006832
2148,0.0391006832
2149,0.0391006832
2150,0.0391006832
2151,0.0293255119
2152,0.0293255119
2153,0.0391006832
2154,0.0391006832
2155,0.0293255119
2156,0.0293255119
2157,0.0391006832
2158,0.0391006832
2159,0.0488758516
2160,0.0488758516
2161,0.0391006832
2162,0.0488758516
2163,0.0586510229
2164,0.0586510229
2165,0.0586510229
2166,0.0586510229
2167,0.0586510229
2168,0.0586510229
2169,0.0586510229
2170,0.0586510229
2171,0.0586510229
2172,0.0586510229
2173,0.0586510229
2174,0.0586510229
2175,0.0586510229
2176,0.0684261989
2177,0.0684261989
2178,0.0684261989
2179,0.0586510229
2180,0.0586510229
2181,0.0586510229
2182,0.0488758516
2183,0.0586510229
2184,0.0586510229
2185,0.0586510229
2186,0.0586510229
2187,0.0586510229
2188,0.0586510229
2189,0.0488758516
2190,0.0586510229
2191,0.0586510229
2192,0.0586510229
2193,0.0586510229
2194,0.0586510229
2195,0.0586510229
2196,0.0586510229
2197,0.0684261989
2198,0.0586510229
2199,0.0586510229
2200,0.0488758516
2201,0.0586510229
2202,0.0586510229
2203,0.0586510229
2204,0.0586510229
2205,0.0586510229
2206,0.0586510229
2207,0.0586510229
2208,0.0586510229
2209,0.0586510229
2210,0.0586510229
2211,0.0488758516
2212,0.0586510229
2213,0.0488758516
2214,0.0586510229
2215,0.0586510229
2216,0.0586510229
2217,0.0488758516
2218,0.0488758516
2219,0.0586510229
2220,0.0684261989
2221,0.0782013654
2222,0.0977517032
2223,0.0977517032
2224,0.1075268864
2225,0.1075268864
2226,0.1075268864
2227,0.1075268864
2228,0.0977517032
2229,0.0879765415
2230,0.0977517032
2231,0.0977517032
2232,0.0977517032
2233,0.1075268864
2234,0.1173020482
2235,0.1075268864
2236,0.0977517032
2237,0.0879765415
2238,0.1075268864
2239,0.0977517032
2240,0.0977517032
2241,0.0977517032
2242,0.0879765415
2243,0.0879765415
2244,0.0977517032
2245,0.0977517032
2246,0.0977517032
2247,0.1075268864
2248,0.1075268864
2249,0.0977517032
2250,0.1075268864
2251,0.0977517032
2252,0.0879765415
2253,0.0879765415
2254,0.0879765415
2255,0.0782013654
2256,0.0782013654
2257,0.0879765415
2258,0.0879765415
2259,0.0879765415
2260,0.0879765415
2261,0.0977517032
2262,0.0782013654
2263,0.0782013654
2264,0.0684261989
2265,0.0782013654
2266,0.0879765415
2267,0.0879765415
2268,0.0977517032
2269,0.0977517032
2270,0.0879765415
2271,0.0879765415
2272,0.0879765415
2273,0.0977517032
2274,0.0977517032
2275,0.0977517032
2276,0.0977517032
2277,0.1075268864
2278,0.1075268864
2279,0.1075268864
2280,0.1075268864
2281,0.0879765415
2282,0.0879765415
2283,0.0782013654
2284,0.0782013654
2285,0.0879765415
2286,0.0782013654
2287,0.0782013654
2288,0.0782013654
2289,0.0782013654
2290,0.0684261989
2291,0.0586510229
2292,0.0684261989
2293,0.0586510229
2294,0.0586510229
2295,0.0782013654
2296,0.0586510229
2297,0.0586510229
2298,0.0586510229
2299,0.0488758516
2300,0.0586510229
2301,0.0488758516
2302,0.0586510229
2303,0.0488758516
2304,0.0586510229
2305,0.0586510229
2306,0.0586510229
2307,0.0586510229
2308,0.0586510229
2309,0.0586510229
2310,0.0586510229
2311,0.0586510229
2312,0.0684261989
2313,0.0586510229
2314,0.0684261989
2315,0.0684261989
2316,0.0586510229
2317,0.0586510229
2318,0.0488758516
2319,0.0488758516
2320,0.0488758516
2321,0.0488758516
2322,0.0488758516
2323,0.0488758516
2324,0.0391006832
2325,0.0488758516
2326,0.0586510229
2327,0.0488758516
2328,0.0488758516
2329,0.0586510229
2330,0.0488758516
2331,0.0586510229
2332,0.0684261989
2333,0.0586510229
2334,0.0684261989
2335,0.0586510229
2336,0.0586510229
2337,0.0586510229
2338,0.0488758516
2339,0.0684261989
2340,0.0586510229
2341,0.0586510229
2342,0.0684261989
2343,0.0684261989
2344,0.0684261989
2345,0.0684261989
2346,0.0684261989
2347,0.0586510229
2348,0.0684261989
2349,0.0586510229
2350,0.0586510229
2351,0.0586510229
2352,0.0586510229
2353,0.0586510229
2354,0.0586510229
2355,0.0488758516
2356,0.0684261989
2357,0.0684261989
2358,0.0684261989
2359,0.0586510229
2360,0.0488758516
2361,0.0586510229
2362,0.0586510229
2363,0.0586510229
2364,0.0586510229
2365,0.0586510229
2366,0.0684261989
2367,0.0586510229
2368,0.0586510229
2369,0.0684261989
2370,0.0586510229
2371,0.0586510229
2372,0.0586510229
2373,0.0684261989
2374,0.0586510229
2375,0.0586510229
2376,0.0586510229
2377,0.0586510229
2378,0.0586510229
2379,0.0586510229
2380,0.0586510229
2381,0.0586510229
2382,0.0586510229
2383,0.0586510229
2384,0.0586510229
2385,0.0684261989
2386,0.0586510229
2387,0.0684261989
2388,0.0586510229
2389,0.0684261989
2390,0.0684261989
2391,0.0782013654
2392,0.0782013654
2393,0.0684261989
2394,0.0684261989
2395,0.0684261989
2396,0.0684261989
2397,0.0684261989
2398,0.0684261989
2399,0.0684261989
2400,0.0684261989
2401,0.0684261989
2402,0.0684261989
2403,0.0684261989
2404,0.0684261989
2405,0.0586510229
2406,0.0684261989
2407,0.0684261989
2408,0.0684261989
2409,0.0684261989
2410,0.0586510229
2411,0.0782013654
2412,0.0684261989
2413,0.0684261989
2414,0.0684261989
2415,0.0684261989
2416,0.0684261989
2417,0.0684261989
2418,0.0586510229
2419,0.0586510229
2420,0.0684261989
2421,0.0782013654
2422,0.0684261989
2423,0.0782013654
2424,0.0782013654
2425,0.0782013654
2426,0.0684261989
2427,0.0684261989
2428,0.0586510229
2429,0.0586510229
2430,0.0488758516
2431,0.0488758516
2432,0.0488758516
2433,0.0488758516
2434,0.0488758516
2435,0.0488758516
2436,0.0488758516
2437,0.0488758516
2438,0.0488758516
2439,0.0488758516
2440,0.0488758516
2441,0.0488758516
2442,0.0488758516
2443,0.0488758516
2444,0.0586510229
2445,0.0488758516
2446,0.0488758516
2447,0.0488758516
2448,0.0488758516
2449,0.0391006832
2450,0.0488758516
2451,0.0391006832
2452,0.0391006832
2453,0.0391006832
2454,0.0391006832
2455,0.0391006832
2456,0.0293255119
2457,0.0293255119
2458,0.0293255119
2459,0.0391006832
2460,0.0391006832
2461,0.0293255119
2462,0.0293255119
2463,0.0293255119
2464,0.0391006832
2465,0.0391006832
2466,0.0391006832
2467,0.0391006832
2468,0.0391006832
2469,0.0391006832
2470,0.0391006832
2471,0.0391006832
2472,0.0293255119
2473,0.0293255119
2474,0.0391006832
2475,0.0293255119
2476,0.0293255119
2477,0.0293255119
2478,0.0293255119
2479,0.0293255119
2480,0.0293255119
2481,0.0293255119
2482,0.0293255119
2483,0.0293255119
2484,0.0293255119
2485,0.0195503416
2486,0.0195503416
2487,0.0195503416
2488,0.0195503416
2489,0.0293255119
2490,0.0195503416
2491,0.0293255119
2492,0.0293255119
2493,0.0195503416
2494,0.0293255119
2495,0.0195503416
2496,0.0195503416
2497,0.0293255119
2498,0.0195503416
2499,0.0293255119
2500,0.0293255119
2501,0.0195503416
2502,0.0293255119
2503,0.0195503416
2504,0.0293255119
2505,0.0391006832
2506,0.0391006832
2507,0.0391006832
2508,0.0391006832
2509,0.0391006832
2510,0.0391006832
2511,0.0391006832
2512,0.0391006832
2513,0.0293255119
2514,0.0293255119
2515,0.0293255119
2516,0.0391006832
2517,0.0293255119
2518,0.0391006832
2519,0.0391006832
2520,0.0391006832
2521,0.0391006832
2522,0.0391006832
2523,0.0391006832
2524,0.0391006832
2525,0.0293255119
2526,0.0391006832
2527,0.0391006832
2528,0.0488758516
2529,0.0391006832
2530,0.0391006832
2531,0.0391006832
2532,0.0391006832
2533,0.0391006832
2534,0.0391006832
2535,0.0391006832
2536,0.0391006832
2537,0.0391006832
2538,0.0391006832
2539,0.0293255119
2540,0.0391006832
2541,0.0391006832
2542,0.0293255119
2543,0.0391006832
2544,0.0391006832
2545,0.0391006832
2546,0.0391006832
2547,0.0391006832
2548,0.0391006832
2549,0.0391006832
2550,0.0391006832
2551,0.0391006832
2552,0.0391006832
2553,0.0293255119
2554,0.0293255119
2555,0.0293255119
2556,0.0293255119
2557,0.0293255119
2558,0.0293255119
2559,0.0293255119
2560,0.0391006832
2561,0.0391006832
2562,0.0391006832
2563,0.0391006832
2564,0.0391006832
2565,0.0391006832
2566,0.0391006832
2567,0.0488758516
2568,0.0391006832
2569,0.0391006832
2570,0.0293255119
2571,0.0391006832
2572,0.0391006832
2573,0.0391006832
2574,0.0391006832
2575,0.0391006832
2576,0.0391006832
2577,0.0488758516
2578,0.0391006832
2579,0.0391006832
2580,0.0488758516
2581,0.0488758516
2582,0.0586510229
2583,0.0586510229
2584,0.0586510229
2585,0.0684261989
2586,0.0684261989
2587,0.0684261989
2588,0.0684261989
2589,0.0586510229
2590,0.0488758516
2591,0.0586510229
2592,0.0586510229
2593,0.0586510229
2594,0.0586510229
2595,0.0586510229
2596,0.0684261989
2597,0.0684261989
2598,0.0586510229
2599,0.0586510229
2600,0.0586510229
2601,0.0586510229
2602,0.0586510229
2603,0.0586510229
2604,0.0782013654
2605,0.0684261989
2606,0.0684261989
2607,0.0684261989
2608,0.0684261989
2609,0.0684261989
2610,0.0586510229
2611,0.0586510229
2612,0.0586510229
2613,0.0488758516
2614,0.0488758516
2615,0.0488758516
2616,0.0488758516
2617,0.0488758516
2618,0.0488758516
2619,0.0488758516
2620,0.0488758516
2621,0.0488758516
2622,0.0488758516
2623,0.0586510229
2624,0.0488758516
2625,0.0488758516
2626,0.0488758516
2627,0.0488758516
2628,0.0586510229
2629,0.0488758516
2630,0.0586510229
2631,0.0488758516
2632,0.0488758516
2633,0.0391006832
2634,0.0391006832
2635,0.0391006832
2636,0.0391006832
2637,0.0391006832
2638,0.0391006832
2639,0.0293255119
2640,0.0293255119
2641,0.0293255119
2642,0.0391006832
2643,0.0391006832
2644,0.0391006832
2645,0.0391006832
2646,0.0391006832
2647,0.0391006832
2648,0.0293255119
2649,0.0391006832
2650,0.0293255119
2651,0.0391006832
2652,0.0391006832
2653,0.0488758516
2654,0.0391006832
2655,0.0391006832
2656,0.0391006832
2657,0.0293255119
2658,0.0293255119
2659,0.0293255119
2660,0.0391006832
2661,0.0391006832
2662,0.0391006832
2663,0.0391006832
2664,0.0391006832
2665,0.0391006832
2666,0.0391006832
2667,0.0391006832
2668,0.0488758516
2669,0.0488758516
2670,0.0488758516
2671,0.0488758516
2672,0.0488758516
2673,0.0488758516
2674,0.0488758516
2675,0.0391006832
2676,0.0391006832
2677,0.0391006832
2678,0.0391006832
2679,0.0391006832
2680,0.0391006832
2681,0.0293255119
2682,0.0391006832
2683,0.0391006832
2684,0.0391006832
2685,0.0391006832
2686,0.0293255119
2687,0.0293255119
2688,0.0391006832
2689,0.0391006832
2690,0.0391006832
2691,0.0488758516
2692,0.0488758516
2693,0.0586510229
2694,0.0586510229
2695,0.0586510229
2696,0.0586510229
2697,0.0488758516
2698,0.0488758516
2699,0.0488758516
2700,0.0488758516
2701,0.0488758516
2702,0.0586510229
2703,0.0586510229
2704,0.0488758516
2705,0.0488758516
2706,0.0488758516
2707,0.0488758516
2708,0.0586510229
2709,0.0488758516
2710,0.0488758516
2711,0.0488758516
2712,0.0586510229
2713,0.0488758516
2714,0.0488758516
2715,0.0488758516
2716,0.0488758516
2717,0.0488758516
2718,0.0488758516
2719,0.0488758516
2720,0.0391006832
2721,0.0391006832
2722,0.0488758516
2723,0.0488758516
2724,0.0391006832
2725,0.0391006832
2726,0.0488758516
2727,0.0488758516
2728,0.0391006832
2729,0.0488758516
2730,0.0488758516
2731,0.0586510229
2732,0.0586510229
2733,0.0586510229
2734,0.0488758516
2735,0.0488758516
2736,0.0586510229
2737,0.0684261989
2738,0.0586510229
2739,0.0586510229
2740,0.0586510229
2741,0.0586510229
2742,0.0684261989
2743,0.0782013654
2744,0.0782013654
2745,0.0782013654
2746,0.0879765415
2747,0.0879765415
2748,0.0782013654
2749,0.0782013654
2750,0.0879765415
2751,0.0782013654
2752,0.0684261989
2753,0.0782013654
2754,0.0879765415
2755,0.0782013654
2756,0.0879765415
2757,0.0879765415
2758,0.0879765415
2759,0.0879765415
2760,0.1075268864
2761,0.1173020482
2762,0.1270772218
2763,0.1075268864
2764,0.1173020482
2765,0.1075268864
2766,0.1270772218
2767,0.1270772218
2768,0.1173020482
2769,0.1270772218
2770,0.1173020482
2771,0.1173020482
2772,0.0977517032
2773,0.0977517032
2774,0.0879765415
2775,0.0782013654
2776,0.0879765415
2777,0.0879765415
2778,0.0977517032
2779,0.0879765415
2780,0.0879765415
2781,0.0879765415
2782,0.0782013654
2783,0.0782013654
2784,0.0782013654
2785,0.0782013654
2786,0.0684261989
2787,0.0684261989
2788,0.0684261989
2789,0.0684261989
2790,0.0586510229
2791,0.0684261989
2792,0.0586510229
2793,0.0586510229
2794,0.0586510229
2795,0.0586510229
2796,0.0586510229
2797,0.0488758516
2798,0.0488758516
2799,0.0488758516
2800,0.0488758516
2801,0.0488758516
2802,0.0586510229
2803,0.0488758516
2804,0.0488758516
2805,0.0488758516
2806,0.0488758516
2807,0.0391006832
2808,0.0488758516
2809,0.0391006832
2810,0.0391006832
2811,0.0391006832
2812,0.0391006832
2813,0.0391006832
2814,0.0391006832
2815,0.0391006832
2816,0.0391006832
2817,0.0391006832
2818,0.0391006832
2819,0.0391006832
2820,0.0391006832
2821,0.0391006832
2822,0.0488758516
2823,0.0488758516
2824,0.0391006832
2825,0.0488758516
2826,0.0391006832
2827,0.0391006832
2828,0.0293255119
2829,0.0391006832
2830,0.0293255119
2831,0.0293255119
2832,0.0293255119
2833,0.0195503416
2834,0.0293255119
2835,0.0293255119
2836,0.0293255119
2837,0.0293255119
2838,0.0293255119
2839,0.0293255119
2840,0.0293255119
2841,0.0293255119
2842,0.0391006832
2843,0.0293255119
2844,0.0391006832
2845,0.0293255119
2846,0.0293255119
2847,0.0293255119
2848,0.0391006832
2849,0.0391006832
2850,0.0391006832
2851,0.0293255119
2852,0.0391006832
2853,0.0391006832
2854,0.0391006832
2855,0.0391006832
2856,0.0391006832
2857,0.0391006832
2858,0.0488758516
2859,0.0488758516
2860,0.0391006832
2861,0.0488758516
2862,0.0488758516
2863,0.0391006832
2864,0.0488758516
2865,0.0488758516
2866,0.0488758516
2867,0.0391006832
2868,0.0488758516
2869,0.0488758516
2870,0.0391006832
2871,0.0391006832
2872,0.0391006832
2873,0.0488758516
2874,0.0391006832
2875,0.0391006832
2876,0.0488758516
2877,0.0488758516
2878,0.0488758516
2879,0.0488758516
2880,0.0488758516
2881,0.0488758516
2882,0.0488758516
2883,0.0488758516
2884,0.0488758516
2885,0.0391006832
2886,0.0391006832
2887,0.0391006832
2888,0.0488758516
2889,0.0391006832
2890,0.0391006832
2891,0.0391006832
2892,0.0391006832
2893,0.0391006832
2894,0.0488758516
2895,0.0488758516
2896,0.0391006832
2897,0.0391006832
2898,0.0488758516
2899,0.0488758516
2900,0.0391006832
2901,0.0391006832
2902,0.0488758516
2903,0.0488758516
2904,0.0488758516
2905,0.0488758516
2906,0.0488758516
2907,0.0488758516
2908,0.0488758516
2909,0.0488758516
2910,0.0488758516
2911,0.0391006832
2912,0.0488758516
2913,0.0488758516
2914,0.0488758516
2915,0.0488758516
2916,0.0586510229
2917,0.0586510229
2918,0.0488758516
2919,0.0488758516
2920,0.0488758516
2921,0.0488758516
2922,0.0391006832
2923,0.0391006832
2924,0.0488758516
2925,0.0488758516
2926,0.0488758516
2927,0.0488758516
2928,0.0586510229
2929,0.0586510229
2930,0.0586510229
2931,0.0586510229
2932,0.0586510229
2933,0.0684261989
2934,0.0586510229
2935,0.0586510229
2936,0.0684261989
2937,0.0684261989
2938,0.0586510229
2939,0.0586510229
2940,0.0586510229
2941,0.0586510229
2942,0.0488758516
2943,0.0488758516
2944,0.0488758516
2945,0.0488758516
2946,0.0586510229
2947,0.0391006832
2948,0.0488758516
2949,0.0488758516
2950,0.0586510229
2951,0.0586510229
2952,0.0488758516
2953,0.0488758516
2954,0.0586510229
2955,0.0488758516
2956,0.0488758516
2957,0.0488758516
2958,0.0391006832
2959,0.0391006832
2960,0.0488758516
2961,0.0391006832
2962,0.0391006832
2963,0.0391006832
2964,0.0488758516
2965,0.0488758516
2966,0.0488758516
2967,0.0488758516
2968,0.0488758516
2969,0.0488758516
2970,0.0586510229
2971,0.0488758516
2972,0.0391006832
2973,0.0391006832
2974,0.0391006832
2975,0.0391006832
2976,0.0391006832
2977,0.0293255119
2978,0.0293255119
2979,0.0391006832
2980,0.0391006832
2981,0.0391006832
2982,0.0293255119
2983,0.0391006832
2984,0.0391006832
2985,0.0391006832
2986,0.0293255119
2987,0.0391006832
2988,0.0391006832
2989,0.0391006832
2990,0.0391006832
2991,0.0391006832
2992,0.0293255119
2993,0.0293255119
2994,0.0391006832
2995,0.0293255119
2996,0.0293255119
2997,0.0293255119
2998,0.0293255119
2999,0.0293255119
3000,0.0391006832
3001,0.6158357620
3002,0.5083088874
3003,0.4105571746
3004,0.3421309947
3005,0.2834799575
3006,0.2443792819
3007,0.2052785873
3008,0.1857282543
3009,0.1661779165
3010,0.1661779165
3011,0.1564027309
3012,0.1466275596
3013,0.1368523955
3014,0.1270772218
3015,0.1075268864
3016,0.0977517032
3017,0.0977517032
3018,0.1173020482
3019,0.1173020482
3020,0.1270772218
3021,0.1270772218
3022,0.1270772218
3023,0.1173020482
3024,0.1173020482
3025,0.1270772218
3026,0.1270772218
3027,0.1173020482
3028,0.1270772218
3029,0.1270772218
3030,0.1270772218
3031,0.1173020482
3032,0.1173020482
3033,0.1466275596
3034,0.1270772218
3035,0.1173020482
3036,0.1173020482
3037,0.1270772218
3038,0.1466275596
3039,0.1466275596
3040,0.1466275596
3041,0.1661779165
3042,0.1759530782
3043,0.1759530782
3044,0.1661779165
3045,0.1564027309
3046,0.1466275596
3047,0.1466275596
3048,0.1270772218
3049,0.1173020482
3050,0.1173020482
3051,0.1075268864
3052,0.1173020482
3053,0.0977517032
3054,0.0879765415
3055,0.0879765415
3056,0.0782013654
3057,0.0782013654
3058,0.0879765415
3059,0.0879765415
3060,0.0782013654
3061,0.0782013654
3062,0.0977517032
3063,0.0879765415
3064,0.0782013654
3065,0.0782013654
3066,0.0977517032
3067,0.0977517032
3068,0.0977517032
3069,0.0977517032
3070,0.1075268864
3071,0.0879765415
3072,0.0977517032
3073,0.0977517032
3074,0.0879765415
3075,0.0977517032
3076,0.1075268864
3077,0.1173020482
3078,0.1075268864
3079,0.0977517032
3080,0.0977517032
3081,0.0977517032
3082,0.0977517032
3083,0.0879765415
3084,0.0782013654
3085,0.0879765415
3086,0.0879765415
3087,0.1075268864
3088,0.1173020482
3089,0.1173020482
3090,0.1173020482
3091,0.1173020482
3092,0.1173020482
3093,0.1173020482
3094,0.1075268864
3095,0.0977517032
3096,0.0879765415
3097,0.0879765415
3098,0.0879765415
3099,0.0879765415
3100,0.0879765415
3101,0.0782013654
3102,0.0782013654
3103,0.0879765415
3104,0.1075268864
3105,0.1173020482
3106,0.1075268864
3107,0.1270772218
3108,0.1173020482
3109,0.0977517032
3110,0.0977517032
3111,0.0977517032
3112,0.0879765415
3113,0.0879765415
3114,0.0879765415
3115,0.1075268864
3116,0.0977517032
3117,0.0977517032
3118,0.0879765415
3119,0.0782013654
3120,0.0684261989
3121,0.1368523955
3122,0.1857282543
3123,0.2052785873
3124,0.1661779165
3125,0.1661779165
3126,0.1955034160
3127,0.2541544437
3128,0.2541544437
3129,0.2737047910
3130,0.3714565038
3131,0.4496578693
3132,0.5083088874
3133,0.4887585639
3134,0.4398827075
3135,0.3616813421
3136,0.3323558330
3137,0.2932551193
3138,0.2834799575
3139,0.2834799575
3140,0.3030303001
3141,0.3910068321
3142,0.3519061565
3143,0.3323558330
3144,0.3714565038
3145,0.5083088874
3146,0.6647116661
3147,0.6060606002
3148,0.5278592109
3149,0.4594330310
3150,0.3812316703
3151,0.3225806236
3152,0.2834799575
3153,0.2639296054
3154,0.2248289346
3155,0.2052785873
3156,0.1759530782
3157,0.1661779165
3158,0.1564027309
3159,0.1368523955
3160,0.1270772218
3161,0.1270772218
3162,0.1466275596
3163,0.1466275596
3164,0.1270772218
3165,0.1173020482
3166,0.0977517032
3167,0.0782013654
3168,0.0782013654
3169,0.0782013654
3170,0.0684261989
3171,0.0586510229
3172,0.0586510229
3173,0.0684261989
3174,0.0684261989
3175,0.0782013654
3176,0.0684261989
3177,0.0782013654
3178,0.0684261989
3179,0.0782013654
3180,0.0684261989
3181,0.0586510229
3182,0.0684261989
3183,0.0586510229
3184,0.0879765415
3185,0.0782013654
3186,0.0782013654
3187,0.1075268864
3188,0.1368523955
3189,0.1368523955
3190,0.1466275596
3191,0.1661779165
3192,0.1857282543
3193,0.2150537729
3194,0.2248289346
3195,0.2052785873
3196,0.1857282543
3197,0.2052785873
3198,0.1759530782
3199,0.1564027309
3200,0.2443792819
3201,0.3128054618
3202,0.2932551193
3203,0.2443792819
3204,0.2150537729
3205,0.1857282543
3206,0.1759530782
3207,0.1857282543
3208,0.1857282543
3209,0.1661779165
3210,0.1759530782
3211,0.1857282543
3212,0.1857282543
3213,0.1759530782
3214,0.1661779165
3215,0.1466275596
3216,0.1368523955
3217,0.1368523955
3218,0.1466275596
3219,0.1368523955
3220,0.1466275596
3221,0.1759530782
3222,0.1955034160
3223,0.1759530782
3224,0.1857282543
3225,0.1857282543
3226,0.1661779165
3227,0.1759530782
3228,0.1759530782
3229,0.1466275596
3230,0.1466275596
3231,0.1564027309
3232,0.1661779165
3233,0.1466275596
3234,0.1466275596
3235,0.1368523955
3236,0.1368523955
3237,0.1173020482
3238,0.1270772218
3239,0.1368523955
3240,0.1368523955
3241,0.1368523955
3242,0.1368523955
3243,0.1661779165
3244,0.1466275596
3245,0.1564027309
3246,0.1368523955
3247,0.1466275596
3248,0.1368523955
3249,0.1368523955
3250,0.1368523955
3251,0.1466275596
3252,0.1368523955
3253,0.1466275596
3254,0.1466275596
3255,0.1368523955
3256,0.1270772218
3257,0.1270772218
3258,0.1173020482
3259,0.1075268864
3260,0.1075268864
3261,0.1075268864
3262,0.1075268864
3263,0.1173020482
3264,0.1173020482
3265,0.1075268864
3266,0.0977517032
3267,0.0977517032
3268,0.0977517032
3269,0.0879765415
3270,0.0879765415
3271,0.0879765415
3272,0.0879765415
3273,0.0684261989
3274,0.0782013654
3275,0.0782013654
3276,0.0879765415
3277,0.0782013654
3278,0.0782013654
3279,0.0879765415
3280,0.0977517032
3281,0.0879765415
3282,0.0879765415
3283,0.0977517032
3284,0.0782013654
3285,0.0977517032
3286,0.1173020482
3287,0.1270772218
3288,0.1368523955
3289,0.1368523955
3290,0.1466275596
3291,0.1661779165
3292,0.1857282543
3293,0.1759530782
3294,0.1564027309
3295,0.1368523955
3296,0.1368523955
3297,0.1270772218
3298,0.1075268864
3299,0.0977517032
3300,0.0879765415
3301,0.0879765415
3302,0.0782013654
3303,0.0879765415
3304,0.1368523955
3305,0.1368523955
3306,0.1661779165
3307,0.1955034160
3308,0.1955034160
3309,0.1955034160
3310,0.2150537729
3311,0.2248289346
3312,0.2443792819
3313,0.2639296054
3314,0.2834799575
3315,0.2541544437
3316,0.2346040964
3317,0.2248289346
3318,0.3030303001
3319,0.3225806236
3320,0.3616813421
3321,0.3519061565
3322,0.3225806236
3323,0.2834799575
3324,0.3323558330
3325,0.5571847438
3326,0.7331378459
3327,0.7233626842
3328,0.6158357620
3329,0.5474095821
3330,0.4594330310
3331,0.3812316703
3332,0.3030303001
3333,0.2541544437
3334,0.2443792819
3335,0.2150537729
3336,0.2248289346
3337,0.1857282543
3338,0.1661779165
3339,0.1368523955
3340,0.1368523955
3341,0.1368523955
3342,0.1368523955
3343,0.1466275596
3344,0.1368523955
3345,0.1466275596
3346,0.1466275596
3347,0.1368523955
3348,0.1466275596
3349,0.1661779165
3350,0.1564027309
3351,0.1466275596
3352,0.1368523955
3353,0.1466275596
3354,0.1564027309
3355,0.1661779165
3356,0.1564027309
3357,0.1564027309
3358,0.1466275596
3359,0.1466275596
3360,0.1368523955
3361,0.1368523955
3362,0.1368523955
3363,0.1564027309
3364,0.1661779165
3365,0.1759530782
3366,0.1759530782
3367,0.1759530782
3368,0.1661779165
3369,0.1564027309
3370,0.1759530782
3371,0.2248289346
3372,0.2248289346
3373,0.2052785873
3374,0.1857282543
3375,0.1564027309
3376,0.1661779165
3377,0.1759530782
3378,0.2248289346
3379,0.2737047910
3380,0.3225806236
3381,0.2834799575
3382,0.2346040964
3383,0.2150537729
3384,0.2248289346
3385,0.2052785873
3386,0.1857282543
3387,0.1759530782
3388,0.1661779165
3389,0.1661779165
3390,0.1466275596
3391,0.1564027309
3392,0.1759530782
3393,0.1661779165
3394,0.1466275596
3395,0.1270772218
3396,0.1466275596
3397,0.1368523955
3398,0.1270772218
3399,0.1270772218
3400,0.1173020482
3401,0.1173020482
3402,0.1270772218
3403,0.1270772218
3404,0.1075268864
3405,0.0977517032
3406,0.0879765415
3407,0.0977517032
3408,0.0879765415
3409,0.0879765415
3410,0.0879765415
3411,0.0977517032
3412,0.0977517032
3413,0.0977517032
3414,0.0977517032
3415,0.1075268864
3416,0.1270772218
3417,0.1173020482
3418,0.1075268864
3419,0.0977517032
3420,0.0977517032
3421,0.0977517032
3422,0.1075268864
3423,0.1075268864
3424,0.0879765415
3425,0.0782013654
3426,0.0977517032
3427,0.1173020482
3428,0.1270772218
3429,0.1173020482
3430,0.1270772218
3431,0.1173020482
3432,0.1173020482
3433,0.1173020482
3434,0.1270772218
3435,0.1564027309
3436,0.1564027309
3437,0.1564027309
3438,0.1564027309
3439,0.1368523955
3440,0.1857282543
3441,0.1955034160
3442,0.1955034160
3443,0.1759530782
3444,0.1466275596
3445,0.1173020482
3446,0.0977517032
3447,0.0977517032
3448,0.1075268864
3449,0.1075268864
3450,0.0977517032
3451,0.0879765415
3452,0.0782013654
3453,0.0782013654
3454,0.0879765415
3455,0.0879765415
3456,0.0977517032
3457,0.0879765415
3458,0.0879765415
3459,0.0782013654
3460,0.0684261989
3461,0.1075268864
3462,0.1173020482
3463,0.1270772218
3464,0.1173020482
3465,0.1173020482
3466,0.1173020482
3467,0.1075268864
3468,0.0977517032
3469,0.0977517032
3470,0.1173020482
3471,0.1075268864
3472,0.1075268864
3473,0.1075268864
3474,0.0977517032
3475,0.0977517032
3476,0.0977517032
3477,0.0879765415
3478,0.0879765415
3479,0.0977517032
3480,0.0977517032
3481,0.0977517032
3482,0.1368523955
3483,0.2052785873
3484,0.2541544437
3485,0.3128054618
3486,0.3812316703
3487,0.4007820129
3488,0.3616813421
3489,0.3519061565
3490,0.4496578693
3491,0.4301075458
3492,0.3519061565
3493,0.2834799575
3494,0.2639296054
3495,0.2541544437
3496,0.2248289346
3497,0.2248289346
3498,0.3323558330
3499,0.3812316703
3500,0.5865102291
3501,1.0166177749
3502,1.0850440216
3503,0.9872922897
3504,0.8895405769
3505,0.7624633312
3506,0.6158357620
3507,0.4887585639
3508,0.4007820129
3509,0.3714565038
3510,0.3616813421
3511,0.3030303001
3512,0.2639296054
3513,0.2248289346
3514,0.1857282543
3515,0.1759530782
3516,0.1564027309
3517,0.1564027309
3518,0.1661779165
3519,0.1759530782
3520,0.1564027309
3521,0.1466275596
3522,0.1270772218
3523,0.1173020482
3524,0.1173020482
3525,0.1173020482
3526,0.1466275596
3527,0.1564027309
3528,0.1564027309
3529,0.1368523955
3530,0.1173020482
3531,0.1173020482
3532,0.0977517032
3533,0.1173020482
3534,0.1075268864
3535,0.1173020482
3536,0.1173020482
3537,0.1173020482
3538,0.1173020482
3539,0.1270772218
3540,0.1466275596
3541,0.1564027309
3542,0.1466275596
3543,0.1368523955
3544,0.1368523955
3545,0.1173020482
3546,0.1368523955
3547,0.1759530782
3548,0.1955034160
3549,0.1759530782
3550,0.1661779165
3551,0.1857282543
3552,0.1857282543
3553,0.2052785873
3554,0.2150537729
3555,0.2150537729
3556,0.2834799575
3557,0.3714565038
3558,0.3616813421
3559,0.3714565038
3560,0.3323558330
3561,0.3030303001
3562,0.2737047910
3563,0.2443792819
3564,0.2052785873
3565,0.1857282543
3566,0.1955034160
3567,0.2737047910
3568,0.3812316703
3569,0.3225806236
3570,0.2737047910
3571,0.2346040964
3572,0.2052785873
3573,0.1857282543
3574,0.1759530782
3575,0.1564027309
3576,0.1466275596
3577,0.1368523955
3578,0.1368523955
3579,0.1270772218
3580,0.1368523955
3581,0.1270772218
3582,0.1075268864
3583,0.1075268864
3584,0.1075268864
3585,0.1075268864
3586,0.0879765415
3587,0.0782013654
3588,0.0977517032
3589,0.1075268864
3590,0.0977517032
3591,0.1075268864
3592,0.0977517032
3593,0.0879765415
3594,0.0879765415
3595,0.0879765415
3596,0.0879765415
3597,0.0879765415
3598,0.0879765415
3599,0.0879765415
3600,0.0977517032
3601,0.0977517032
3602,0.0879765415
3603,0.1075268864
3604,0.1173020482
3605,0.0977517032
3606,0.0879765415
3607,0.0977517032
3608,0.1173020482
3609,0.1173020482
3610,0.1173020482
3611,0.1173020482
3612,0.1075268864
3613,0.0977517032
3614,0.0977517032
3615,0.1270772218
3616,0.1173020482
3617,0.1075268864
3618,0.0977517032
3619,0.0879765415
3620,0.0782013654
3621,0.0782013654
3622,0.0782013654
3623,0.0684261989
3624,0.0782013654
3625,0.0782013654
3626,0.0782013654
3627,0.0782013654
3628,0.0879765415
3629,0.0977517032
3630,0.0977517032
3631,0.0879765415
3632,0.0782013654
3633,0.0782013654
3634,0.0977517032
3635,0.1368523955
3636,0.1955034160
3637,0.2052785873
3638,0.2443792819
3639,0.2248289346
3640,0.2052785873
3641,0.1955034160
3642,0.1759530782
3643,0.1759530782
3644,0.1759530782
3645,0.1564027309
3646,0.1661779165
3647,0.1466275596
3648,0.1661779165
3649,0.1564027309
3650,0.1466275596
3651,0.1368523955
3652,0.1173020482
3653,0.1270772218
3654,0.1661779165
3655,0.2541544437
3656,0.2737047910
3657,0.2346040964
3658,0.2248289346
3659,0.3030303001
3660,0.3910068321
3661,0.3812316703
3662,0.3421309947
3663,0.3421309947
3664,0.3616813421
3665,0.3519061565
3666,0.3714565038
3667,0.4007820129
3668,0.3812316703
3669,0.3225806236
3670,0.3030303001
3671,0.2541544437
3672,0.2248289346
3673,0.2346040964
3674,0.3030303001
3675,0.4007820129
3676,0.3519061565
3677,0.4105571746
3678,0.5474095821
3679,0.7331378459
3680,0.9384163856
3681,0.8308895111
3682,0.7135874748
3683,0.6549364089
3684,0.5376344203
3685,0.4398827075
3686,0.3714565038
3687,0.3128054618
3688,0.3128054618
3689,0.3030303001
3690,0.2834799575
3691,0.2443792819
3692,0.2052785873
3693,0.1857282543
3694,0.1955034160
3695,0.1759530782
3696,0.1661779165
3697,0.1759530782
3698,0.1564027309
3699,0.1661779165
3700,0.1661779165
3701,0.1759530782
3702,0.1759530782
3703,0.1661779165
3704,0.1466275596
3705,0.1368523955
3706,0.1270772218
3707,0.1270772218
3708,0.1173020482
3709,0.1075268864
3710,0.0879765415
3711,0.0879765415
3712,0.0782013654
3713,0.0782013654
3714,0.0879765415
3715,0.0977517032
3716,0.1368523955
3717,0.1466275596
3718,0.1466275596
3719,0.1661779165
3720,0.1857282543
3721,0.1955034160
3722,0.1759530782
3723,0.1955034160
3724,0.2052785873
3725,0.2150537729
3726,0.2248289346
3727,0.2052785873
3728,0.1955034160
3729,0.1955034160
3730,0.1955034160
3731,0.1955034160
3732,0.2737047910
3733,0.2834799575
3734,0.3030303001
3735,0.3519061565
3736,0.3030303001
3737,0.2737047910
3738,0.2541544437
3739,0.2346040964
3740,0.2150537729
3741,0.1857282543
3742,0.1661779165
3743,0.1466275596
3744,0.1368523955
3745,0.1368523955
3746,0.1270772218
3747,0.1075268864
3748,0.1173020482
3749,0.1173020482
3750,0.1270772218
3751,0.1173020482
3752,0.0977517032
3753,0.0977517032
3754,0.0879765415
3755,0.0879765415
3756,0.0879765415
3757,0.0879765415
3758,0.0879765415
3759,0.0782013654
3760,0.0782013654
3761,0.0879765415
3762,0.0879765415
3763,0.0879765415
3764,0.0782013654
3765,0.0782013654
3766,0.0879765415
3767,0.0782013654
3768,0.0782013654
3769,0.0879765415
3770,0.1270772218
3771,0.1075268864
3772,0.0977517032
3773,0.0879765415
3774,0.0879765415
3775,0.0879765415
3776,0.0879765415
3777,0.0977517032
3778,0.0879765415
3779,0.0879765415
3780,0.1075268864
3781,0.1075268864
3782,0.1075268864
3783,0.1173020482
3784,0.1173020482
3785,0.1173020482
3786,0.1075268864
3787,0.0977517032
3788,0.0879765415
3789,0.0782013654
3790,0.0879765415
3791,0.0879765415
3792,0.1075268864
3793,0.1075268864
3794,0.1075268864
3795,0.1075268864
3796,0.0977517032
3797,0.0879765415
3798,0.0879765415
3799,0.1075268864
3800,0.1075268864
3801,0.1270772218
3802,0.1466275596
3803,0.1564027309
3804,0.1661779165
3805,0.2346040964
3806,0.2541544437
3807,0.2443792819
3808,0.1955034160
3809,0.1759530782
3810,0.1759530782
3811,0.2052785873
3812,0.2248289346
3813,0.2052785873
3814,0.1759530782
3815,0.1564027309
3816,0.1564027309
3817,0.1466275596
3818,0.1564027309
3819,0.1466275596
3820,0.1661779165
3821,0.1564027309
3822,0.1759530782
3823,0.1759530782
3824,0.1466275596
3825,0.1564027309
3826,0.1564027309
3827,0.2052785873
3828,0.2248289346
3829,0.2052785873
3830,0.2639296054
3831,0.4789833545
3832,0.4692081928
3833,0.7331378459
3834,1.0361680984
3835,0.9872922897
3836,0.8211143493
3837,0.6744868278
3838,0.8211143493
3839,0.8602150917
3840,0.7135874748
3841,0.5865102291
3842,0.4887585639
3843,0.4594330310
3844,0.4105571746
3845,0.5767350673
3846,0.6256109237
3847,0.6060606002
3848,0.6842619895
3849,1.0948191833
3850,1.0948191833
3851,1.0654937028
3852,0.9970674514
3853,0.9188660621
3854,0.8211143493
3855,0.7722384929
3856,0.7233626842
3857,0.6744868278
3858,0.5865102291
3859,0.5474095821
3860,0.4692081928
3861,0.4594330310
3862,0.4007820129
3863,0.3616813421
3864,0.3421309947
3865,0.3030303001
3866,0.3030303001
3867,0.3323558330
3868,0.3616813421
3869,0.3421309947
3870,0.3128054618
3871,0.2932551193
3872,0.2737047910
3873,0.2737047910
3874,0.2150537729
3875,0.2052785873
3876,0.1955034160
3877,0.2248289346
3878,0.2248289346
3879,0.2150537729
3880,0.1955034160
3881,0.2248289346
3882,0.1955034160
3883,0.1857282543
3884,0.1661779165
3885,0.1564027309
3886,0.1661779165
3887,0.1466275596
3888,0.1368523955
3889,0.1466275596
3890,0.1564027309
3891,0.1759530782
3892,0.1759530782
3893,0.1759530782
3894,0.1661779165
3895,0.1759530782
3896,0.2052785873
3897,0.2248289346
3898,0.2248289346
3899,0.2150537729
3900,0.2052785873
3901,0.1857282543
3902,0.2443792819
3903,0.3225806236
3904,0.2932551193
3905,0.3030303001
3906,0.3030303001
3907,0.2737047910
3908,0.2834799575
3909,0.3030303001
3910,0.2932551193
3911,0.2639296054
3912,0.3616813421
3913,0.4398827075
3914,0.3714565038
3915,0.3323558330
3916,0.2932551193
3917,0.2639296054
3918,0.2639296054
3919,0.2443792819
3920,0.2248289346
3921,0.2052785873
3922,0.1857282543
3923,0.1857282543
3924,0.1661779165
3925,0.1661779165
3926,0.1661779165
3927,0.1759530782
3928,0.1564027309
3929,0.1466275596
3930,0.1857282543
3931,0.2150537729
3932,0.2150537729
3933,0.2346040964
3934,0.2150537729
3935,0.2052785873
3936,0.1857282543
3937,0.1759530782
3938,0.1955034160
3939,0.1759530782
3940,0.1564027309
3941,0.1368523955
3942,0.1466275596
3943,0.1368523955
3944,0.1075268864
3945,0.0977517032
3946,0.0977517032
3947,0.1270772218
3948,0.1270772218
3949,0.1368523955
3950,0.1368523955
3951,0.1270772218
3952,0.1173020482
3953,0.1075268864
3954,0.1173020482
3955,0.1368523955
3956,0.1466275596
3957,0.1466275596
3958,0.1661779165
3959,0.1466275596
3960,0.1368523955
3961,0.1270772218
3962,0.1368523955
3963,0.1368523955
3964,0.1759530782
3965,0.1759530782
3966,0.1564027309
3967,0.1466275596
3968,0.1368523955
3969,0.1661779165
3970,0.1564027309
3971,0.1368523955
3972,0.1564027309
3973,0.1857282543
3974,0.1661779165
3975,0.1466275596
3976,0.1368523955
3977,0.1564027309
3978,0.1564027309
3979,0.1564027309
3980,0.1661779165
3981,0.1466275596
3982,0.1368523955
3983,0.1173020482
3984,0.1466275596
3985,0.2248289346
3986,0.2052785873
3987,0.2052785873
3988,0.1759530782
3989,0.1564027309
3990,0.1857282543
3991,0.1857282543
3992,0.1661779165
3993,0.1661779165
3994,0.1857282543
3995,0.2052785873
3996,0.3812316703
3997,0.4398827075
3998,0.6647116661
3999,0.9286412239
4000,1.0166177749
4001,1.7302052974
4002,1.3685239553
4003,1.0752688646
4004,0.8602150917
4005,0.6842619895
4006,0.5474095821
4007,0.4301075458
4008,0.3616813421
4009,0.2932551193
4010,0.2443792819
4011,0.2052785873
4012,0.1759530782
4013,0.1466275596
4014,0.1173020482
4015,0.0977517032
4016,0.0879765415
4017,0.0782013654
4018,0.0684261989
4019,0.0586510229
4020,0.0782013654
4021,0.0586510229
4022,0.0488758516
4023,0.0488758516
4024,0.0391006832
4025,0.0391006832
4026,0.0293255119
4027,0.0293255119
4028,0.0293255119
4029,0.0293255119
4030,0.0195503416
4031,0.0195503416
4032,0.0195503416
4033,0.0097751703
4034,0.0195503416
4035,0.0195503416
4036,0.0195503416
4037,0.0195503416
4038,0.0195503416
4039,0.0195503416
4040,0.0195503416
4041,0.0195503416
4042,0.0195503416
4043,0.0195503416
4044,0.0195503416
4045,0.0195503416
4046,0.0097751703
4047,0.0097751703
4048,0.0097751703
4049,0.0097751703
4050,0.0195503416
4051,0.0097751703
4052,0.0097751703
4053,0.0097751703
4054,0.0195503416
4055,0.0195503416
4056,0.0195503416
4057,0.0195503416
4058,0.0195503416
4059,0.0195503416
4060,0.0293255119
4061,0.0293255119
4062,0.0293255119
4063,0.0195503416
4064,0.0195503416
4065,0.0097751703
4066,0.0097751703
4067,0.0195503416
4068,0.0097751703
4069,0.0097751703
4070,0.0097751703
4071,0.0097751703
4072,0.0097751703
4073,0.0097751703
4074,0.0195503416
4075,0.0097751703
4076,0.0097751703
4077,0.0097751703
4078,0.0097751703
4079,0.0097751703
4080,0.0097751703
4081,0.0097751703
4082,0.0097751703
4083,0.0097751703
4084,0.0097751703
4085,0.0097751703
4086,0.0097751703
4087,0.0097751703
4088,0.0097751703
4089,0.0097751703
4090,0.0293255119
4091,0.0293255119
4092,0.0293255119
4093,0.0293255119
4094,0.0195503416
4095,0.0097751703
4096,0.0097751703
4097,0.0097751703
4098,0.0195503416
4099,0.0097751703
4100,0.0097751703
4101,0.0195503416
4102,0.0097751703
4103,0.0097751703
4104,0.0097751703
4105,0.0097751703
4106,0.0097751703
4107,0.0000000000
4108,0.0097751703
4109,0.0097751703
4110,0.0000000000
4111,0.0000000000
4112,0.0000000000
4113,0.0097751703
4114,0.0000000000
4115,0.0097751703
4116,0.0097751703
4117,0.0195503416
4118,0.0097751703
4119,0.0097751703
4120,0.0097751703
4121,0.0097751703
4122,0.0097751703
4123,0.0195503416
4124,0.0195503416
4125,0.0195503416
4126,0.0195503416
4127,0.0293255119
4128,0.0195503416
4129,0.0293255119
4130,0.0293255119
4131,0.0391006832
4132,0.0391006832
4133,0.0293255119
4134,0.0293255119
4135,0.0293255119
4136,0.0391006832
4137,0.0391006832
4138,0.0391006832
4139,0.0391006832
4140,0.0391006832
4141,0.0391006832
4142,0.0391006832
4143,0.0391006832
4144,0.0391006832
4145,0.0488758516
4146,0.0391006832
4147,0.0391006832
4148,0.0391006832
4149,0.0488758516
4150,0.0488758516
4151,0.0586510229
4152,0.0586510229
4153,0.0586510229
4154,0.0488758516
4155,0.0488758516
4156,0.0488758516
4157,0.0586510229
4158,0.0782013654
4159,0.1173020482
4160,0.1661779165
4161,0.1955034160
4162,0.1857282543
4163,0.1661779165
4164,0.1564027309
4165,0.1270772218
4166,0.1075268864
4167,0.0879765415
4168,0.0684261989
4169,0.0684261989
4170,0.0586510229
4171,0.0488758516
4172,0.0293255119
4173,0.0293255119
4174,0.0293255119
4175,0.0293255119
4176,0.0391006832
4177,0.0488758516
4178,0.0488758516
4179,0.0488758516
4180,0.0586510229
4181,0.0782013654
4182,0.0782013654
4183,0.0684261989
4184,0.0586510229
4185,0.0586510229
4186,0.0586510229
4187,0.0488758516
4188,0.0488758516
4189,0.0488758516
4190,0.0586510229
4191,0.0586510229
4192,0.0586510229
4193,0.0586510229
4194,0.0586510229
4195,0.0586510229
4196,0.0586510229
4197,0.0488758516
4198,0.0488758516
4199,0.0488758516
4200,0.0391006832
4201,0.0293255119
4202,0.0293255119
4203,0.0293255119
4204,0.0488758516
4205,0.0488758516
4206,0.0391006832
4207,0.0391006832
4208,0.0488758516
4209,0.0391006832
4210,0.0293255119
4211,0.0293255119
4212,0.0293255119
4213,0.0195503416
4214,0.0195503416
4215,0.0195503416
4216,0.0097751703
4217,0.0097751703
4218,0.0195503416
4219,0.0195503416
4220,0.0293255119
4221,0.0293255119
4222,0.0195503416
4223,0.0195503416
4224,0.0195503416
4225,0.0195503416
4226,0.0195503416
4227,0.0195503416
4228,0.0293255119
4229,0.0293255119
4230,0.0195503416
4231,0.0293255119
4232,0.0293255119
4233,0.0195503416
4234,0.0195503416
4235,0.0097751703
4236,0.0195503416
4237,0.0195503416
4238,0.0195503416
4239,0.0195503416
4240,0.0097751703
4241,0.0097751703
4242,0.0195503416
4243,0.0195503416
4244,0.0195503416
4245,0.0195503416
4246,0.0195503416
4247,0.0195503416
4248,0.0195503416
4249,0.0195503416
4250,0.0195503416
4251,0.0195503416
4252,0.0195503416
4253,0.0195503416
4254,0.0195503416
4255,0.0097751703
4256,0.0097751703
4257,0.0097751703
4258,0.0097751703
4259,0.0097751703
4260,0.0097751703
4261,0.0097751703
4262,0.0097751703
4263,0.0097751703
4264,0.0097751703
4265,0.0097751703
4266,0.0097751703
4267,0.0097751703
4268,0.0097751703
4269,0.0097751703
4270,0.0097751703
4271,0.0097751703
4272,0.0097751703
4273,0.0097751703
4274,0.0097751703
4275,0.0097751703
4276,0.0097751703
4277,0.0195503416
4278,0.0293255119
4279,0.0293255119
4280,0.0293255119
4281,0.0293255119
4282,0.0293255119
4283,0.0293255119
4284,0.0391006832
4285,0.0293255119
4286,0.0391006832
4287,0.0391006832
4288,0.0488758516
4289,0.0488758516
4290,0.0391006832
4291,0.0391006832
4292,0.0391006832
4293,0.0488758516
4294,0.0391006832
4295,0.0488758516
4296,0.0488758516
4297,0.0488758516
4298,0.0488758516
4299,0.0488758516
4300,0.0488758516
4301,0.0391006832
4302,0.0391006832
4303,0.0391006832
4304,0.0391006832
4305,0.0391006832
4306,0.0391006832
4307,0.0488758516
4308,0.0391006832
4309,0.0488758516
4310,0.0586510229
4311,0.0488758516
4312,0.0586510229
4313,0.0586510229
4314,0.0684261989
4315,0.0586510229
4316,0.0488758516
4317,0.0488758516
4318,0.0391006832
4319,0.0488758516
4320,0.0684261989
4321,0.0586510229
4322,0.0586510229
4323,0.0488758516
4324,0.0293255119
4325,0.0293255119
4326,0.0293255119
4327,0.0293255119
4328,0.0293255119
4329,0.0293255119
4330,0.0195503416
4331,0.0195503416
4332,0.0195503416
4333,0.0195503416
4334,0.0195503416
4335,0.0195503416
4336,0.0293255119
4337,0.0293255119
4338,0.0391006832
4339,0.0293255119
4340,0.0195503416
4341,0.0195503416
4342,0.0391006832
4343,0.0293255119
4344,0.0293255119
4345,0.0293255119
4346,0.0195503416
4347,0.0195503416
4348,0.0195503416
4349,0.0195503416
4350,0.0293255119
4351,0.0293255119
4352,0.0195503416
4353,0.0195503416
4354,0.0195503416
4355,0.0097751703
4356,0.0195503416
4357,0.0195503416
4358,0.0195503416
4359,0.0195503416
4360,0.0097751703
4361,0.0195503416
4362,0.0293255119
4363,0.0195503416
4364,0.0195503416
4365,0.0293255119
4366,0.0195503416
4367,0.0195503416
4368,0.0195503416
4369,0.0097751703
4370,0.0097751703
4371,0.0097751703
4372,0.0097751703
4373,0.0097751703
4374,0.0097751703
4375,0.0000000000
4376,0.0097751703
4377,0.0097751703
4378,0.0000000000
4379,0.0000000000
4380,0.0097751703
4381,0.0097751703
4382,0.0000000000
4383,0.0000000000
4384,0.0097751703
4385,0.0097751703
4386,0.0097751703
4387,0.0097751703
4388,0.0097751703
4389,0.0097751703
4390,0.0097751703
4391,0.0097751703
4392,0.0097751703
4393,0.0097751703
4394,0.0097751703
4395,0.0097751703
4396,0.0097751703