0,0.1173020482
1,0.2443792819
2,0.3128054618
3,0.0000000000
4,0.0000000000
5,0.0097751703
6,0.0000000000
7,0.0000000000
8,0.1857282543
9,0.0000000000
10,0.0000000000
11,0.2150537729
12,0.1368523955
13,0.1857282543
14,0.2737047910
15,0.3128054618
16,0.3616813421
17,0.3910068321
18,0.4398827075
19,0.4496578693
20,0.4398827075
21,0.4105571746
22,0.3812316703
23,0.3714565038
24,0.3323558330
25,0.2346040964
26,0.2834799575
27,0.2443792819
28,0.3128054618
29,0.3030303001
30,0.4203323364
31,0.3812316703
32,0.3421309947
33,0.3225806236
34,0.2932551193
35,0.2737047910
36,0.2541544437
37,0.2443792819
38,0.2150537729
39,0.2248289346
40,0.1759530782
41,0.2052785873
42,0.1466275596
43,0.1661779165
44,0.1270772218
45,0.1564027309
46,0.1564027309
47,0.1564027309
48,0.1368523955
49,0.1270772218
50,0.1173020482
51,0.1173020482
52,0.1173020482
53,0.1075268864
54,0.1075268864
55,0.1173020482
56,0.1173020482
57,0.1173020482
58,0.1270772218
59,0.1075268864
60,0.0977517032
61,0.0782013654
62,0.0684261989
63,0.0488758516
64,0.0488758516
65,0.0391006832
66,0.0293255119
67,0.0293255119
68,0.0391006832
69,0.0293255119
70,0.0293255119
71,0.0293255119
72,0.0293255119
73,0.0293255119
74,0.0391006832
75,0.0293255119
76,0.0391006832
77,0.0391006832
78,0.0391006832
79,0.0391006832
80,0.0391006832
81,0.0293255119
82,0.0293255119
83,0.0293255119
84,0.0293255119
85,0.0195503416
86,0.0195503416
87,0.0195503416
88,0.0195503416
89,0.0195503416
90,0.0195503416
91,0.0195503416
92,0.0195503416
93,0.0097751703
94,0.0097751703
95,0.0097751703
96,0.0097751703
97,0.0000000000
98,0.0097751703
99,0.0000000000
100,0.0000000000
101,0.0097751703
102,0.0195503416
103,0.0097751703
104,0.0000000000
105,0.0097751703
106,0.0097751703
107,0.0097751703
108,0.0000000000
109,0.0097751703
110,0.0097751703
111,0.0000000000
112,0.0000000000
113,0.0000000000
114,0.0000000000
115,0.0000000000
116,0.0000000000
117,0.0000000000
118,0.0000000000
119,0.0000000000
120,0.0000000000
121,0.0097751703
122,0.0097751703
123,0.0097751703
124,0.0097751703
125,0.0000000000
126,0.0000000000
127,0.0000000000
128,0.0000000000
129,0.0000000000
130,0.0000000000
131,0.0000000000
132,0.0000000000
133,0.0000000000
134,0.0000000000
135,0.0000000000
136,0.0000000000
137,0.0000000000
138,0.0000000000
139,0.0000000000
140,0.0000000000
141,0.0000000000
142,0.0000000000
143,0.0000000000
144,0.0000000000
145,0.0000000000
146,0.0000000000
147,0.0000000000
148,0.0000000000
149,0.0000000000
150,0.0000000000
151,0.0000000000
152,0.0000000000
153,0.0000000000
154,0.0000000000
155,0.0000000000
156,0.0000000000
157,0.0000000000
158,0.0000000000
159,0.0000000000
160,0.0000000000
161,0.0000000000
162,0.0000000000
163,0.0097751703
164,0.0000000000
165,0.0097751703
166,0.0097751703
167,0.0097751703
168,0.0195503416
169,0.0097751703
170,0.0195503416
171,0.0195503416
172,0.0195503416
173,0.0195503416
174,0.0195503416
175,0.0195503416
176,0.0293255119
177,0.0293255119
178,0.0293255119
179,0.0293255119
180,0.0293255119
181,0.0391006832
182,0.0488758516
183,0.0586510229
184,0.0586510229
185,0.0488758516
186,0.0488758516
187,0.0586510229
188,0.0586510229
189,0.0586510229
190,0.0488758516
191,0.0684261989
192,0.0977517032
193,0.1270772218
194,0.1564027309
195,0.1661779165
196,0.1661779165
197,0.1466275596
198,0.1270772218
199,0.1075268864
200,0.0977517032
201,0.0879765415
202,0.0879765415
203,0.0782013654
204,0.0684261989
205,0.0586510229
206,0.0488758516
207,0.0586510229
208,0.0488758516
209,0.0391006832
210,0.0391006832
211,0.0391006832
212,0.0488758516
213,0.0488758516
214,0.0391006832
215,0.0391006832
216,0.0293255119
217,0.0195503416
218,0.0391006832
219,0.0488758516
220,0.0488758516
221,0.0391006832
222,0.0586510229
223,0.0488758516
224,0.0488758516
225,0.0391006832
226,0.0391006832
227,0.0391006832
228,0.0391006832
229,0.0391006832
230,0.0391006832
231,0.0293255119
232,0.0293255119
233,0.0195503416
234,0.0195503416
235,0.0195503416
236,0.0195503416
237,0.0097751703
238,0.0195503416
239,0.0195503416
240,0.0195503416
241,0.0293255119
242,0.0293255119
243,0.0195503416
244,0.0293255119
245,0.0293255119
246,0.0293255119
247,0.0293255119
248,0.0195503416
249,0.0195503416
250,0.0195503416
251,0.0195503416
252,0.0195503416
253,0.0195503416
254,0.0195503416
255,0.0195503416
256,0.0097751703
257,0.0097751703
258,0.0097751703
259,0.0097751703
260,0.0000000000
261,0.0097751703
262,0.0000000000
263,0.0000000000
264,0.0000000000
265,0.0000000000
266,0.0000000000
267,0.0097751703
268,0.0000000000
269,0.0097751703
270,0.0097751703
271,0.0097751703
272,0.0097751703
273,0.0000000000
274,0.0000000000
275,0.0097751703
276,0.0097751703
277,0.0000000000
278,0.0000000000
279,0.0000000000
280,0.0097751703
281,0.0000000000
282,0.0097751703
283,0.0000000000
284,0.0097751703
285,0.0000000000
286,0.0000000000
287,0.0000000000
288,0.0000000000
289,0.0000000000
290,0.0000000000
291,0.0000000000
292,0.0000000000
293,0.0000000000
294,0.0000000000
295,0.0000000000
296,0.0000000000
297,0.0000000000
298,0.0000000000
299,0.0000000000
300,0.0000000000
301,0.0000000000
302,0.0000000000
303,0.0000000000
304,0.0000000000
305,0.0000000000
306,0.0000000000
307,0.0000000000
308,0.0000000000
309,0.0000000000
310,0.0000000000
311,0.0000000000
312,0.0000000000
313,0.0000000000
314,0.0000000000
315,0.0097751703
316,0.0097751703
317,0.0097751703
318,0.0097751703
319,0.0097751703
320,0.0488758516
321,0.0391006832
322,0.0293255119
323,0.0293255119
324,0.0293255119
325,0.0293255119
326,0.0293255119
327,0.0195503416
328,0.0293255119
329,0.0195503416
330,0.0195503416
331,0.0293255119
332,0.0195503416
333,0.0293255119
334,0.0293255119
335,0.0391006832
336,0.0391006832
337,0.0000000000
338,0.0684261989
339,0.0684261989
340,0.0684261989
341,0.0684261989
342,0.0586510229
343,0.0488758516
344,0.0488758516
345,0.0488758516
346,0.0488758516
347,0.0391006832
348,0.0488758516
349,0.0586510229
350,0.0684261989
351,0.1075268864
352,0.1661779165
353,0.1564027309
354,0.1368523955
355,0.1270772218
356,0.1270772218
357,0.1075268864
358,0.1075268864
359,0.0879765415
360,0.0782013654
361,0.0782013654
362,0.0586510229
363,0.0488758516
364,0.0488758516
365,0.0488758516
366,0.0488758516
367,0.0391006832
368,0.0293255119
369,0.0293255119
370,0.0195503416
371,0.0293255119
372,0.0293255119
373,0.0293255119
374,0.0293255119
375,0.0391006832
376,0.0684261989
377,0.0879765415
378,0.0684261989
379,0.0684261989
380,0.0488758516
381,0.0391006832
382,0.0391006832
383,0.0293255119
384,0.0293255119
385,0.0293255119
386,0.0293255119
387,0.0195503416
388,0.0195503416
389,0.0195503416
390,0.0293255119
391,0.0293255119
392,0.0097751703
393,0.0195503416
394,0.0195503416
395,0.0195503416
396,0.0195503416
397,0.0195503416
398,0.0195503416
399,0.0195503416
400,0.0293255119
401,0.0195503416
402,0.0195503416
403,0.0195503416
404,0.0195503416
405,0.0000000000
406,0.0293255119
407,0.0293255119
408,0.0293255119
409,0.0195503416
410,0.0097751703
411,0.0097751703
412,0.0097751703
413,0.0097751703
414,0.0097751703
415,0.0097751703
416,0.0097751703
417,0.0000000000
418,0.0097751703
419,0.0000000000
420,0.0000000000
421,0.0000000000
422,0.0000000000
423,0.0097751703
424,0.0000000000
425,0.0000000000
426,0.0000000000
427,0.0000000000
428,0.0000000000
429,0.0000000000
430,0.0000000000
431,0.0000000000
432,0.0000000000
433,0.0000000000
434,0.0000000000
435,0.0000000000
436,0.0000000000
437,0.0000000000
438,0.0000000000
439,0.0000000000
440,0.0097751703
441,0.0097751703
442,0.0097751703
443,0.0097751703
444,0.0097751703
445,0.0000000000
446,0.0000000000
447,0.0000000000
448,0.0000000000
449,0.0000000000
450,0.0000000000
451,0.0000000000
452,0.0000000000
453,0.0000000000
454,0.0000000000
455,0.0000000000
456,0.0000000000
457,0.0000000000
458,0.0000000000
459,0.0000000000
460,0.0000000000
461,0.0000000000
462,0.0000000000
463,0.0000000000
464,0.0000000000
465,0.0000000000
466,0.0000000000
467,0.0000000000
468,0.0000000000
469,0.0000000000
470,0.0000000000
471,0.0000000000
472,0.0000000000
473,0.0000000000
474,0.0000000000
475,0.0000000000
476,0.0000000000
477,0.0000000000
478,0.0097751703
479,0.0000000000
480,0.0000000000
481,0.0000000000
482,0.0000000000
483,0.0000000000
484,0.0000000000
485,0.0000000000
486,0.0000000000
487,0.0000000000
488,0.0000000000
489,0.0000000000
490,0.0000000000
491,0.0097751703
492,0.0097751703
493,0.0000000000
494,0.0000000000
495,0.0000000000
496,0.0097751703
497,0.0097751703
498,0.0097751703
499,0.0097751703
500,0.0097751703
501,0.0097751703
502,0.0097751703
503,0.0097751703
504,0.0097751703
505,0.0097751703
506,0.0097751703
507,0.0195503416
508,0.0000000000
509,0.0195503416
510,0.0195503416
511,0.0195503416
512,0.0195503416
513,0.0195503416
514,0.0293255119
515,0.0293255119
516,0.0293255119
517,0.0391006832
518,0.0391006832
519,0.0391006832
520,0.0391006832
521,0.0293255119
522,0.0391006832
523,0.0391006832
524,0.0488758516
525,0.0488758516
526,0.0586510229
527,0.0488758516
528,0.0488758516
529,0.0488758516
530,0.0488758516
531,0.0586510229
532,0.0586510229
533,0.0684261989
534,0.1368523955
535,0.1466275596
536,0.1270772218
537,0.1075268864
538,0.1270772218
539,0.1075268864
540,0.1075268864
541,0.0879765415
542,0.0782013654
543,0.0782013654
544,0.0586510229
545,0.0488758516
546,0.0586510229
547,0.0488758516
548,0.0488758516
549,0.0391006832
550,0.0391006832
551,0.0293255119
552,0.0293255119
553,0.0293255119
554,0.0293255119
555,0.0195503416
556,0.0195503416
557,0.0195503416
558,0.0195503416
559,0.0586510229
560,0.0586510229
561,0.0488758516
562,0.0488758516
563,0.0391006832
564,0.0293255119
565,0.0293255119
566,0.0293255119
567,0.0293255119
568,0.0195503416
569,0.0195503416
570,0.0097751703
571,0.0097751703
572,0.0097751703
573,0.0097751703
574,0.0097751703
575,0.0097751703
576,0.0097751703
577,0.0195503416
578,0.0293255119
579,0.0391006832
580,0.0391006832
581,0.0293255119
582,0.0391006832
583,0.0293255119
584,0.0293255119
585,0.0195503416
586,0.0195503416
587,0.0097751703
588,0.0097751703
589,0.0195503416
590,0.0195503416
591,0.0097751703
592,0.0097751703
593,0.0097751703
594,0.0097751703
595,0.0000000000
596,0.0097751703
597,0.0000000000
598,0.0000000000
599,0.0000000000
600,0.0000000000
601,0.0000000000
602,0.0000000000
603,0.0097751703
604,0.0000000000
605,0.0000000000
606,0.0000000000
607,0.0097751703
608,0.0097751703
609,0.0000000000
610,0.0000000000
611,0.0000000000
612,0.0000000000
613,0.0000000000
614,0.0000000000
615,0.0000000000
616,0.0000000000
617,0.0097751703
618,0.0000000000
619,0.0000000000
620,0.0000000000
621,0.0097751703
622,0.0000000000
623,0.0000000000
624,0.0000000000
625,0.0000000000
626,0.0000000000
627,0.0000000000
628,0.0097751703
629,0.0097751703
630,0.0000000000
631,0.0097751703
632,0.0000000000
633,0.0000000000
634,0.0000000000
635,0.0000000000
636,0.0000000000
637,0.0000000000
638,0.0000000000
639,0.0000000000
640,0.0000000000
641,0.0000000000
642,0.0000000000
643,0.0000000000
644,0.0000000000
645,0.0000000000
646,0.0000000000
647,0.0000000000
648,0.0000000000
649,0.0000000000
650,0.0000000000
651,0.0000000000
652,0.0000000000
653,0.0000000000
654,0.0000000000
655,0.0000000000
656,0.0000000000
657,0.0000000000
658,0.0000000000
659,0.0000000000
660,0.0000000000
661,0.0000000000
662,0.0000000000
663,0.0000000000
664,0.0000000000
665,0.0000000000
666,0.0000000000
667,0.0000000000
668,0.0097751703
669,0.0000000000
670,0.0000000000
671,0.0000000000
672,0.0000000000
673,0.0097751703
674,0.0097751703
675,0.0097751703
676,0.0097751703
677,0.0097751703
678,0.0195503416
679,0.0195503416
680,0.0195503416
681,0.0195503416
682,0.0293255119
683,0.0293255119
684,0.0293255119
685,0.0293255119
686,0.0195503416
687,0.0195503416
688,0.0195503416
689,0.0195503416
690,0.0293255119
691,0.0293255119
692,0.0293255119
693,0.0391006832
694,0.0391006832
695,0.0391006832
696,0.0391006832
697,0.0391006832
698,0.0488758516
699,0.0488758516
700,0.0586510229
701,0.0586510229
702,0.0586510229
703,0.0782013654
704,0.1564027309
705,0.3030303001
706,0.2639296054
707,0.2248289346
708,0.1857282543
709,0.1661779165
710,0.1466275596
711,0.1270772218
712,0.1270772218
713,0.1173020482
714,0.0977517032
715,0.0782013654
716,0.0684261989
717,0.0586510229
718,0.0488758516
719,0.0488758516
720,0.0391006832
721,0.0391006832
722,0.0391006832
723,0.0391006832
724,0.0488758516
725,0.0391006832
726,0.0293255119
727,0.0391006832
728,0.0391006832
729,0.0391006832
730,0.0293255119
731,0.0391006832
732,0.0391006832
733,0.0488758516
734,0.0684261989
735,0.0782013654
736,0.0684261989
737,0.0586510229
738,0.0488758516
739,0.0488758516
740,0.0488758516
741,0.0488758516
742,0.0391006832
743,0.0391006832
744,0.0293255119
745,0.0293255119
746,0.0195503416
747,0.0293255119
748,0.0293255119
749,0.0293255119
750,0.0195503416
751,0.0195503416
752,0.0195503416
753,0.0097751703
754,0.0195503416
755,0.0195503416
756,0.0195503416
757,0.0195503416
758,0.0195503416
759,0.0195503416
760,0.0097751703
761,0.0097751703
762,0.0097751703
763,0.0097751703
764,0.0097751703
765,0.0097751703
766,0.0195503416
767,0.0195503416
768,0.0195503416
769,0.0195503416
770,0.0195503416
771,0.0195503416
772,0.0195503416
773,0.0097751703
774,0.0097751703
775,0.0097751703
776,0.0097751703
777,0.0097751703
778,0.0000000000
779,0.0000000000
780,0.0000000000
781,0.0000000000
782,0.0000000000
783,0.0000000000
784,0.0000000000
785,0.0000000000
786,0.0000000000
787,0.0000000000
788,0.0586510229
789,0.0391006832
790,0.0391006832
791,0.0293255119
792,0.0195503416
793,0.0195503416
794,0.0195503416
795,0.0097751703
796,0.0195503416
797,0.0097751703
798,0.0195503416
799,0.0097751703
800,0.0391006832
801,0.0391006832
802,0.0293255119
803,0.0195503416
804,0.0195503416
805,0.0195503416
806,0.0195503416
807,0.0195503416
808,0.0097751703
809,0.0097751703
810,0.0195503416
811,0.0097751703
812,0.0097751703
813,0.0097751703
814,0.0097751703
815,0.0000000000
816,0.0000000000
817,0.0000000000
818,0.0000000000
819,0.0000000000
820,0.0000000000
821,0.0000000000
822,0.0000000000
823,0.0000000000
824,0.0000000000
825,0.0000000000
826,0.0000000000
827,0.0000000000
828,0.0000000000
829,0.0000000000
830,0.0000000000
831,0.0000000000
832,0.0000000000
833,0.0000000000
834,0.0000000000
835,0.0000000000
836,0.0000000000
837,0.0000000000
838,0.0000000000
839,0.0000000000
840,0.0000000000
841,0.0000000000
842,0.0000000000
843,0.0000000000
844,0.0000000000
845,0.0000000000
846,0.0000000000
847,0.0000000000
848,0.0000000000
849,0.0000000000
850,0.0000000000
851,0.0000000000
852,0.0000000000
853,0.0000000000
854,0.0000000000
855,0.0000000000
856,0.0000000000
857,0.0000000000
858,0.0000000000
859,0.0000000000
860,0.0000000000
861,0.0000000000
862,0.0000000000
863,0.0000000000
864,0.0000000000
865,0.0000000000
866,0.0000000000
867,0.0000000000
868,0.0000000000
869,0.0000000000
870,0.0000000000
871,0.0000000000
872,0.0000000000
873,0.0000000000
874,0.0000000000
875,0.0000000000
876,0.0000000000
877,0.0000000000
878,0.0000000000
879,0.0000000000
880,0.0000000000
881,0.0000000000
882,0.0000000000
883,0.0000000000
884,0.0097751703
885,0.0000000000
886,0.0097751703
887,0.0195503416
888,0.0195503416
889,0.0293255119
890,0.0293255119
891,0.0488758516
892,0.0586510229
893,0.0586510229
894,0.0488758516
895,0.0586510229
896,0.0782013654
897,0.0586510229
898,0.0782013654
899,0.0782013654
900,0.0586510229
901,0.0391006832
902,0.0391006832
903,0.0293255119
904,0.0293255119
905,0.0097751703
906,0.0097751703
907,0.0097751703
908,0.0097751703
909,0.0097751703
910,0.0097751703
911,0.0097751703
912,0.0000000000
913,0.0000000000
914,0.0000000000
915,0.0000000000
916,0.0000000000
917,0.0097751703
918,0.0195503416
919,0.0195503416
920,0.0293255119
921,0.0195503416
922,0.0195503416
923,0.0097751703
924,0.0000000000
925,0.0097751703
926,0.0195503416
927,0.0097751703
928,0.0097751703
929,0.0000000000
930,0.0000000000
931,0.0000000000
932,0.0000000000
933,0.0000000000
934,0.0000000000
935,0.0000000000
936,0.0000000000
937,0.0000000000
938,0.0097751703
939,0.0195503416
940,0.0097751703
941,0.0097751703
942,0.0195503416
943,0.0195503416
944,0.0195503416
945,0.0195503416
946,0.0293255119
947,0.0293255119
948,0.0195503416
949,0.0195503416
950,0.0097751703
951,0.0195503416
952,0.0195503416
953,0.0097751703
954,0.0097751703
955,0.0097751703
956,0.0097751703
957,0.0097751703
958,0.0097751703
959,0.0097751703
960,0.0000000000
961,0.0000000000
962,0.0097751703
963,0.0000000000
964,0.0000000000
965,0.0000000000
966,0.0097751703
967,0.0097751703
968,0.0000000000
969,0.0000000000
970,0.0097751703
971,0.0097751703
972,0.0097751703
973,0.0097751703
974,0.0097751703
975,0.0097751703
976,0.0097751703
977,0.0000000000
978,0.0000000000
979,0.0000000000
980,0.0000000000
981,0.0000000000
982,0.0000000000
983,0.0000000000
984,0.0000000000
985,0.0000000000
986,0.0000000000
987,0.0000000000
988,0.0000000000
989,0.0000000000
990,0.0097751703
991,0.0000000000
992,0.0097751703
993,0.0000000000
994,0.0000000000
995,0.0000000000
996,0.0000000000
997,0.0000000000
998,0.0000000000
999,0.0000000000
1000,0.0000000000
1001,0.2150537729
1002,0.1759530782
1003,0.1564027309
1004,0.1270772218
1005,0.1075268864
1006,0.0977517032
1007,0.0782013654
1008,0.0684261989
1009,0.0488758516
1010,0.0391006832
1011,0.0293255119
1012,0.0391006832
1013,0.0488758516
1014,0.0879765415
1015,0.1857282543
1016,0.1857282543
1017,0.2248289346
1018,0.2541544437
1019,0.2346040964
1020,0.1955034160
1021,0.1661779165
1022,0.1466275596
1023,0.1466275596
1024,0.1270772218
1025,0.1075268864
1026,0.0782013654
1027,0.0684261989
1028,0.0586510229
1029,0.0391006832
1030,0.0293255119
1031,0.0195503416
1032,0.0195503416
1033,0.0195503416
1034,0.0195503416
1035,0.0488758516
1036,0.0684261989
1037,0.0684261989
1038,0.0684261989
1039,0.0586510229
1040,0.0782013654
1041,0.0782013654
1042,0.0782013654
1043,0.0684261989
1044,0.0782013654
1045,0.0879765415
1046,0.0782013654
1047,0.0879765415
1048,0.1075268864
1049,0.1466275596
1050,0.1466275596
1051,0.1173020482
1052,0.0977517032
1053,0.0782013654
1054,0.0684261989
1055,0.0586510229
1056,0.0586510229
1057,0.0488758516
1058,0.0488758516
1059,0.0488758516
1060,0.0586510229
1061,0.0782013654
1062,0.1075268864
1063,0.1075268864
1064,0.1173020482
1065,0.1270772218
1066,0.1173020482
1067,0.1075268864
1068,0.1075268864
1069,0.1075268864
1070,0.0977517032
1071,0.1075268864
1072,0.1173020482
1073,0.1466275596
1074,0.1759530782
1075,0.1759530782
1076,0.1564027309
1077,0.1564027309
1078,0.1466275596
1079,0.1368523955
1080,0.1270772218
1081,0.1368523955
1082,0.1857282543
1083,0.2443792819
1084,0.2443792819
1085,0.3030303001
1086,0.3128054618
1087,0.2834799575
1088,0.2443792819
1089,0.2443792819
1090,0.2052785873
1091,0.1661779165
1092,0.1466275596
1093,0.1270772218
1094,0.1075268864
1095,0.1270772218
1096,0.1466275596
1097,0.1759530782
1098,0.2150537729
1099,0.2541544437
1100,0.3225806236
1101,0.4594330310
1102,0.4398827075
1103,0.4007820129
1104,0.3323558330
1105,0.3225806236
1106,0.3225806236
1107,0.2737047910
1108,0.2639296054
1109,0.3910068321
1110,0.4203323364
1111,0.5571847438
1112,0.4692081928
1113,0.4301075458
1114,0.3519061565
1115,0.3225806236
1116,0.2932551193
1117,0.2541544437
1118,0.2346040964
1119,0.2052785873
1120,0.1759530782
1121,0.1564027309
1122,0.1368523955
1123,0.1173020482
1124,0.0977517032
1125,0.0782013654
1126,0.0684261989
1127,0.0488758516
1128,0.0488758516
1129,0.0391006832
1130,0.0391006832
1131,0.0391006832
1132,0.0293255119
1133,0.0195503416
1134,0.0293255119
1135,0.0293255119
1136,0.0293255119
1137,0.0293255119
1138,0.0293255119
1139,0.0293255119
1140,0.0195503416
1141,0.0391006832
1142,0.0586510229
1143,0.0684261989
1144,0.1075268864
1145,0.1075268864
1146,0.1173020482
1147,0.1075268864
1148,0.0879765415
1149,0.0782013654
1150,0.0684261989
1151,0.0586510229
1152,0.0586510229
1153,0.0488758516
1154,0.0586510229
1155,0.0684261989
1156,0.1075268864
1157,0.1173020482
1158,0.1270772218
1159,0.1270772218
1160,0.1270772218
1161,0.1173020482
1162,0.1075268864
1163,0.0977517032
1164,0.0782013654
1165,0.0782013654
1166,0.0782013654
1167,0.0684261989
1168,0.0586510229
1169,0.0879765415
1170,0.1368523955
1171,0.1270772218
1172,0.1075268864
1173,0.0977517032
1174,0.0782013654
1175,0.0879765415
1176,0.0782013654
1177,0.0586510229
1178,0.0586510229
1179,0.0488758516
1180,0.0488758516
1181,0.0586510229
1182,0.0586510229
1183,0.0586510229
1184,0.0488758516
1185,0.0391006832
1186,0.0293255119
1187,0.0195503416
1188,0.0195503416
1189,0.0195503416
1190,0.0195503416
1191,0.0195503416
1192,0.0195503416
1193,0.0195503416
1194,0.0195503416
1195,0.0195503416
1196,0.0097751703
1197,0.0195503416
1198,0.0195503416
1199,0.0195503416
1200,0.0195503416
1201,0.0391006832
1202,0.0684261989
1203,0.0684261989
1204,0.0879765415
1205,0.0977517032
1206,0.0977517032
1207,0.0977517032
1208,0.0879765415
1209,0.0879765415
1210,0.0782013654
1211,0.0684261989
1212,0.0782013654
1213,0.0879765415
1214,0.0684261989
1215,0.0684261989
1216,0.0684261989
1217,0.0684261989
1218,0.0586510229
1219,0.0488758516
1220,0.0391006832
1221,0.0391006832
1222,0.0391006832
1223,0.0293255119
1224,0.0391006832
1225,0.0879765415
1226,0.1075268864
1227,0.0977517032
1228,0.0782013654
1229,0.0684261989
1230,0.0488758516
1231,0.0586510229
1232,0.0488758516
1233,0.0391006832
1234,0.0488758516
1235,0.0391006832
1236,0.0293255119
1237,0.0293255119
1238,0.0293255119
1239,0.0195503416
1240,0.0097751703
1241,0.0097751703
1242,0.0097751703
1243,0.0195503416
1244,0.0293255119
1245,0.0293255119
1246,0.0293255119
1247,0.0293255119
1248,0.0195503416
1249,0.0195503416
1250,0.0195503416
1251,0.0293255119
1252,0.0293255119
1253,0.0293255119
1254,0.0293255119
1255,0.0293255119
1256,0.0488758516
1257,0.0684261989
1258,0.0684261989
1259,0.0586510229
1260,0.0684261989
1261,0.0586510229
1262,0.0586510229
1263,0.0586510229
1264,0.0586510229
1265,0.0684261989
1266,0.0879765415
1267,0.0782013654
1268,0.0879765415
1269,0.0782013654
1270,0.0782013654
1271,0.0782013654
1272,0.0782013654
1273,0.0684261989
1274,0.0586510229
1275,0.0488758516
1276,0.0488758516
1277,0.0586510229
1278,0.0684261989
1279,0.0586510229
1280,0.0684261989
1281,0.0684261989
1282,0.0879765415
1283,0.0879765415
1284,0.1270772218
1285,0.1466275596
1286,0.1466275596
1287,0.1564027309
1288,0.1759530782
1289,0.3128054618
1290,0.4692081928
1291,0.4496578693
1292,0.4203323364
1293,0.4007820129
1294,0.3519061565
1295,0.2932551193
1296,0.3030303001
1297,0.2834799575
1298,0.2541544437
1299,0.2346040964
1300,0.2443792819
1301,0.2834799575
1302,0.3225806236
1303,0.3519061565
1304,0.4007820129
1305,0.4692081928
1306,0.5180840492
1307,0.5865102291
1308,0.6256109237
1309,0.5278592109
1310,0.4887585639
1311,0.8699902534
1312,0.7624633312
1313,0.6158357620
1314,0.4887585639
1315,0.4007820129
1316,0.3519061565
1317,0.3225806236
1318,0.2834799575
1319,0.2443792819
1320,0.1955034160
1321,0.1564027309
1322,0.1466275596
1323,0.1368523955
1324,0.1466275596
1325,0.1564027309
1326,0.1661779165
1327,0.1564027309
1328,0.1270772218
1329,0.1661779165
1330,0.2052785873
1331,0.2052785873
1332,0.1759530782
1333,0.1466275596
1334,0.1270772218
1335,0.1075268864
1336,0.0977517032
1337,0.1075268864
1338,0.1173020482
1339,0.0977517032
1340,0.0879765415
1341,0.0879765415
1342,0.0782013654
1343,0.0782013654
1344,0.0977517032
1345,0.1075268864
1346,0.0977517032
1347,0.0977517032
1348,0.1466275596
1349,0.1857282543
1350,0.1955034160
1351,0.1759530782
1352,0.1955034160
1353,0.1955034160
1354,0.1564027309
1355,0.1270772218
1356,0.1173020482
1357,0.0879765415
1358,0.1075268864
1359,0.1368523955
1360,0.1759530782
1361,0.2248289346
1362,0.2932551193
1363,0.3519061565
1364,0.4007820129
1365,0.4007820129
1366,0.3812316703
1367,0.3812316703
1368,0.4887585639
1369,0.4985337257
1370,0.4301075458
1371,0.4105571746
1372,0.3812316703
1373,0.3225806236
1374,0.2932551193
1375,0.2639296054
1376,0.2248289346
1377,0.1955034160
1378,0.1661779165
1379,0.1564027309
1380,0.1368523955
1381,0.1173020482
1382,0.1075268864
1383,0.0977517032
1384,0.0879765415
1385,0.0879765415
1386,0.0782013654
1387,0.0782013654
1388,0.0782013654
1389,0.0684261989
1390,0.0586510229
1391,0.0488758516
1392,0.0488758516
1393,0.0391006832
1394,0.0293255119
1395,0.0293255119
1396,0.0293255119
1397,0.0391006832
1398,0.0391006832
1399,0.0488758516
1400,0.0391006832
1401,0.0391006832
1402,0.0488758516
1403,0.0488758516
1404,0.0488758516
1405,0.0488758516
1406,0.0586510229
1407,0.0586510229
1408,0.0879765415
1409,0.0879765415
1410,0.1075268864
1411,0.1173020482
1412,0.1173020482
1413,0.0977517032
1414,0.0977517032
1415,0.0977517032
1416,0.0977517032
1417,0.1075268864
1418,0.1270772218
1419,0.1661779165
1420,0.2150537729
1421,0.2248289346
1422,0.2248289346
1423,0.2248289346
1424,0.2737047910
1425,0.3421309947
1426,0.4301075458
1427,0.4203323364
1428,0.3714565038
1429,0.3714565038
1430,0.3616813421
1431,0.3323558330
1432,0.2737047910
1433,0.2248289346
1434,0.1857282543
1435,0.1564027309
1436,0.1368523955
1437,0.1173020482
1438,0.1075268864
1439,0.0879765415
1440,0.0782013654
1441,0.0879765415
1442,0.0977517032
1443,0.1173020482
1444,0.0977517032
1445,0.0879765415
1446,0.0782013654
1447,0.0586510229
1448,0.0488758516
1449,0.0488758516
1450,0.0488758516
1451,0.0488758516
1452,0.0391006832
1453,0.0391006832
1454,0.0391006832
1455,0.0391006832
1456,0.0391006832
1457,0.0391006832
1458,0.0488758516
1459,0.0782013654
1460,0.0879765415
1461,0.1173020482
1462,0.1466275596
1463,0.1661779165
1464,0.1857282543
1465,0.1466275596
1466,0.1270772218
1467,0.1075268864
1468,0.1270772218
1469,0.1173020482
1470,0.1270772218
1471,0.0977517032
1472,0.0879765415
1473,0.0782013654
1474,0.0684261989
1475,0.0586510229
1476,0.0782013654
1477,0.1173020482
1478,0.1270772218
1479,0.1075268864
1480,0.1075268864
1481,0.0879765415
1482,0.0977517032
1483,0.1270772218
1484,0.1857282543
1485,0.2932551193
1486,0.3714565038
1487,0.4203323364
1488,0.3812316703
1489,0.3323558330
1490,0.3030303001
1491,0.2932551193
1492,0.3030303001
1493,0.3225806236
1494,0.3519061565
1495,0.3812316703
1496,0.4301075458
1497,0.4887585639
1498,0.5376344203
1499,0.5865102291
1500,0.6256109237
1501,0.6158357620
1502,0.6744868278
1503,1.0263929367
1504,0.8993157386
1505,0.7526881694
1506,0.6451612472
1507,0.5180840492
1508,0.4496578693
1509,0.4398827075
1510,0.4301075458
1511,0.3616813421
1512,0.3714565038
1513,0.4105571746
1514,0.4789833545
1515,0.4105571746
1516,0.3616813421
1517,0.3225806236
1518,0.2737047910
1519,0.2346040964
1520,0.1955034160
1521,0.1661779165
1522,0.1564027309
1523,0.1466275596
1524,0.1270772218
1525,0.1270772218
1526,0.1270772218
1527,0.1368523955
1528,0.1368523955
1529,0.1075268864
1530,0.0879765415
1531,0.0879765415
1532,0.0977517032
1533,0.0879765415
1534,0.0879765415
1535,0.0782013654
1536,0.0782013654
1537,0.0782013654
1538,0.0782013654
1539,0.0782013654
1540,0.0684261989
1541,0.0782013654
1542,0.1075268864
1543,0.1270772218
1544,0.1173020482
1545,0.1270772218
1546,0.1270772218
1547,0.1173020482
1548,0.1173020482
1549,0.1270772218
1550,0.1466275596
1551,0.1564027309
1552,0.1564027309
1553,0.1955034160
1554,0.2150537729
1555,0.2248289346
1556,0.2346040964
1557,0.2541544437
1558,0.2639296054
1559,0.2639296054
1560,0.2639296054
1561,0.2443792819
1562,0.2346040964
1563,0.2346040964
1564,0.2443792819
1565,0.2052785873
1566,0.1857282543
1567,0.1661779165
1568,0.1564027309
1569,0.1368523955
1570,0.1075268864
1571,0.0977517032
1572,0.0879765415
1573,0.0879765415
1574,0.0782013654
1575,0.0684261989
1576,0.0586510229
1577,0.0488758516
1578,0.0391006832
1579,0.0391006832
1580,0.0488758516
1581,0.0488758516
1582,0.0488758516
1583,0.0586510229
1584,0.0586510229
1585,0.0586510229
1586,0.0488758516
1587,0.0391006832
1588,0.0391006832
1589,0.0293255119
1590,0.0293255119
1591,0.0195503416
1592,0.0293255119
1593,0.0195503416
1594,0.0195503416
1595,0.0195503416
1596,0.0097751703
1597,0.0391006832
1598,0.0391006832
1599,0.0391006832
1600,0.0293255119
1601,0.0293255119
1602,0.0293255119
1603,0.0195503416
1604,0.0195503416
1605,0.0195503416
1606,0.0293255119
1607,0.0293255119
1608,0.0391006832
1609,0.0391006832
1610,0.0293255119
1611,0.0391006832
1612,0.0782013654
1613,0.0977517032
1614,0.0782013654
1615,0.0684261989
1616,0.0977517032
1617,0.0977517032
1618,0.0782013654
1619,0.0684261989
1620,0.0586510229
1621,0.0684261989
1622,0.0586510229
1623,0.0586510229
1624,0.0586510229
1625,0.0391006832
1626,0.0391006832
1627,0.0391006832
1628,0.0391006832
1629,0.0293255119
1630,0.0195503416
1631,0.0195503416
1632,0.0195503416
1633,0.0293255119
1634,0.0391006832
1635,0.0488758516
1636,0.0488758516
1637,0.0391006832
1638,0.0293255119
1639,0.0391006832
1640,0.0293255119
1641,0.0293255119
1642,0.0293255119
1643,0.0293255119
1644,0.0391006832
1645,0.0391006832
1646,0.0391006832
1647,0.0586510229
1648,0.0684261989
1649,0.0684261989
1650,0.0586510229
1651,0.0586510229
1652,0.0488758516
1653,0.0586510229
1654,0.0684261989
1655,0.0782013654
1656,0.0684261989
1657,0.0684261989
1658,0.0586510229
1659,0.0586510229
1660,0.0684261989
1661,0.0782013654
1662,0.0782013654
1663,0.0684261989
1664,0.0684261989
1665,0.0586510229
1666,0.0586510229
1667,0.0586510229
1668,0.0488758516
1669,0.0488758516
1670,0.0488758516
1671,0.0684261989
1672,0.0879765415
1673,0.1270772218
1674,0.1466275596
1675,0.1759530782
1676,0.2248289346
1677,0.2834799575
1678,0.2737047910
1679,0.2443792819
1680,0.2541544437
1681,0.2541544437
1682,0.2346040964
1683,0.2346040964
1684,0.2248289346
1685,0.2834799575
1686,0.3519061565
1687,0.3616813421
1688,0.4007820129
1689,0.4887585639
1690,0.6256109237
1691,0.7820136547
1692,0.8602150917
1693,0.9188660621
1694,0.8015640258
1695,0.8015640258
1696,1.3391984701
1697,1.4076246261
1698,1.2512218952
1699,1.1534701585
1700,1.0557184219
1701,0.8602150917
1702,0.7331378459
1703,0.6158357620
1704,0.5083088874
1705,0.4301075458
1706,0.3812316703
1707,0.3323558330
1708,0.2737047910
1709,0.2346040964
1710,0.2150537729
1711,0.2052785873
1712,0.1857282543
1713,0.1759530782
1714,0.1466275596
1715,0.1270772218
1716,0.1075268864
1717,0.0977517032
1718,0.0879765415
1719,0.0782013654
1720,0.0684261989
1721,0.0684261989
1722,0.0684261989
1723,0.0586510229
1724,0.0391006832
1725,0.0391006832
1726,0.0293255119
1727,0.0391006832
1728,0.0586510229
1729,0.0586510229
1730,0.0488758516
1731,0.0391006832
1732,0.0488758516
1733,0.0684261989
1734,0.0782013654
1735,0.0977517032
1736,0.1173020482
1737,0.1270772218
1738,0.1368523955
1739,0.1368523955
1740,0.1466275596
1741,0.1466275596
1742,0.1368523955
1743,0.1270772218
1744,0.1564027309
1745,0.2052785873
1746,0.2248289346
1747,0.2248289346
1748,0.2150537729
1749,0.2248289346
1750,0.2150537729
1751,0.2346040964
1752,0.2248289346
1753,0.1955034160
1754,0.1661779165
1755,0.1466275596
1756,0.1466275596
1757,0.1759530782
1758,0.1661779165
1759,0.1368523955
1760,0.1270772218
1761,0.0977517032
1762,0.0879765415
1763,0.0782013654
1764,0.0782013654
1765,0.0684261989
1766,0.0586510229
1767,0.0684261989
1768,0.0684261989
1769,0.0782013654
1770,0.0782013654
1771,0.0586510229
1772,0.0488758516
1773,0.0391006832
1774,0.0293255119
1775,0.0293255119
1776,0.0195503416
1777,0.0195503416
1778,0.0195503416
1779,0.0195503416
1780,0.0195503416
1781,0.0293255119
1782,0.0293255119
1783,0.0293255119
1784,0.0293255119
1785,0.0293255119
1786,0.0391006832
1787,0.0293255119
1788,0.0195503416
1789,0.0195503416
1790,0.0195503416
1791,0.0293255119
1792,0.0391006832
1793,0.0488758516
1794,0.0488758516
1795,0.0488758516
1796,0.0488758516
1797,0.0391006832
1798,0.0293255119
1799,0.0293255119
1800,0.0195503416
1801,0.0195503416
1802,0.0195503416
1803,0.0293255119
1804,0.0391006832
1805,0.0488758516
1806,0.0488758516
1807,0.0488758516
1808,0.0391006832
1809,0.0391006832
1810,0.0488758516
1811,0.0782013654
1812,0.0879765415
1813,0.0977517032
1814,0.0879765415
1815,0.0782013654
1816,0.0684261989
1817,0.0684261989
1818,0.0488758516
1819,0.0391006832
1820,0.0391006832
1821,0.0293255119
1822,0.0391006832
1823,0.0293255119
1824,0.0293255119
1825,0.0293255119
1826,0.0293255119
1827,0.0293255119
1828,0.0195503416
1829,0.0195503416
1830,0.0195503416
1831,0.0293255119
1832,0.0293255119
1833,0.0195503416
1834,0.0195503416
1835,0.0293255119
1836,0.0293255119
1837,0.0391006832
1838,0.0391006832
1839,0.0293255119
1840,0.0293255119
1841,0.0293255119
1842,0.0195503416
1843,0.0293255119
1844,0.0293255119
1845,0.0391006832
1846,0.0391006832
1847,0.0391006832
1848,0.0586510229
1849,0.0586510229
1850,0.0879765415
1851,0.1075268864
1852,0.1270772218
1853,0.1368523955
1854,0.1270772218
1855,0.1173020482
1856,0.1173020482
1857,0.1075268864
1858,0.0977517032
1859,0.1075268864
1860,0.0977517032
1861,0.0977517032
1862,0.0977517032
1863,0.0879765415
1864,0.0879765415
1865,0.0879765415
1866,0.0782013654
1867,0.0782013654
1868,0.0782013654
1869,0.0977517032
1870,0.1075268864
1871,0.0977517032
1872,0.0977517032
1873,0.1173020482
1874,0.1368523955
1875,0.1368523955
1876,0.1955034160
1877,0.2639296054
1878,0.3225806236
1879,0.3421309947
1880,0.3225806236
1881,0.3225806236
1882,0.3616813421
1883,0.3421309947
1884,0.4105571746
1885,0.4301075458
1886,0.3714565038
1887,0.3323558330
1888,0.3323558330
1889,0.3714565038
1890,0.4203323364
1891,0.5083088874
1892,0.5571847438
1893,0.5669599056
1894,0.5180840492
1895,0.4398827075
1896,0.4203323364
1897,0.5571847438
1898,0.6060606002
1899,0.5376344203
1900,0.5571847438
1901,0.4692081928
1902,0.4203323364
1903,0.4007820129
1904,0.3519061565
1905,0.2834799575
1906,0.2248289346
1907,0.1759530782
1908,0.1564027309
1909,0.1564027309
1910,0.1466275596
1911,0.1270772218
1912,0.0977517032
1913,0.0879765415
1914,0.0684261989
1915,0.0586510229
1916,0.0488758516
1917,0.0391006832
1918,0.0391006832
1919,0.0293255119
1920,0.0293255119
1921,0.0293255119
1922,0.0293255119
1923,0.0391006832
1924,0.0391006832
1925,0.0293255119
1926,0.0293255119
1927,0.0195503416
1928,0.0195503416
1929,0.0195503416
1930,0.0293255119
1931,0.0488758516
1932,0.0586510229
1933,0.0684261989
1934,0.0782013654
1935,0.0879765415
1936,0.0782013654
1937,0.0977517032
1938,0.0977517032
1939,0.0977517032
1940,0.0782013654
1941,0.0879765415
1942,0.0977517032
1943,0.0782013654
1944,0.0782013654
1945,0.0977517032
1946,0.1270772218
1947,0.1466275596
1948,0.1564027309
1949,0.1661779165
1950,0.1759530782
1951,0.1955034160
1952,0.2737047910
1953,0.3323558330
1954,0.3323558330
1955,0.2834799575
1956,0.2346040964
1957,0.2150537729
1958,0.2248289346
1959,0.2052785873
1960,0.1661779165
1961,0.1368523955
1962,0.1075268864
1963,0.0879765415
1964,0.0684261989
1965,0.0586510229
1966,0.0488758516
1967,0.0488758516
1968,0.0488758516
1969,0.0488758516
1970,0.0488758516
1971,0.0391006832
1972,0.0293255119
1973,0.0293255119
1974,0.0195503416
1975,0.0195503416
1976,0.0195503416
1977,0.0097751703
1978,0.0195503416
1979,0.0195503416
1980,0.0195503416
1981,0.0293255119
1982,0.0195503416
1983,0.0293255119
1984,0.0195503416
1985,0.0195503416
1986,0.0293255119
1987,0.0293255119
1988,0.0195503416
1989,0.0293255119
1990,0.0195503416
1991,0.0293255119
1992,0.0195503416
1993,0.0195503416
1994,0.0293255119
1995,0.0293255119
1996,0.0293255119
1997,0.0293255119
1998,0.0195503416
1999,0.0195503416
2000,0.0293255119
2001,1.1241446733
2002,0.8895405769
2003,0.7038123130
2004,0.5571847438
2005,0.4496578693
2006,0.3519061565
2007,0.2834799575
2008,0.2248289346
2009,0.1857282543
2010,0.1564027309
2011,0.1270772218
2012,0.1075268864
2013,0.0879765415
2014,0.0684261989
2015,0.0684261989
2016,0.0488758516
2017,0.0488758516
2018,0.0488758516
2019,0.0391006832
2020,0.0488758516
2021,0.0391006832
2022,0.0391006832
2023,0.0293255119
2024,0.0293255119
2025,0.0293255119
2026,0.0391006832
2027,0.0488758516
2028,0.0488758516
2029,0.0488758516
2030,0.0488758516
2031,0.0488758516
2032,0.0488758516
2033,0.0391006832
2034,0.0488758516
2035,0.0488758516
2036,0.0488758516
2037,0.0488758516
2038,0.0488758516
2039,0.0488758516
2040,0.0488758516
2041,0.0586510229
2042,0.0684261989
2043,0.0684261989
2044,0.0684261989
2045,0.0782013654
2046,0.0684261989
2047,0.0684261989
2048,0.0684261989
2049,0.0684261989
2050,0.0488758516
2051,0.0488758516
2052,0.0488758516
2053,0.0586510229
2054,0.0586510229
2055,0.0586510229
2056,0.0586510229
2057,0.0586510229
2058,0.0488758516
2059,0.0586510229
2060,0.0488758516
2061,0.0488758516
2062,0.0488758516
2063,0.0488758516
2064,0.0488758516
2065,0.0391006832
2066,0.0391006832
2067,0.0391006832
2068,0.0391006832
2069,0.0391006832
2070,0.0391006832
2071,0.0391006832
2072,0.0391006832
2073,0.0391006832
2074,0.0293255119
2075,0.0293255119
2076,0.0293255119
2077,0.0293255119
2078,0.0293255119
2079,0.0195503416
2080,0.0293255119
2081,0.0293255119
2082,0.0293255119
2083,0.0391006832
2084,0.0293255119
2085,0.0293255119
2086,0.0293255119
2087,0.0293255119
2088,0.0293255119
2089,0.0293255119
2090,0.0293255119
2091,0.0195503416
2092,0.0195503416
2093,0.0195503416
2094,0.0195503416
2095,0.0293255119
2096,0.0195503416
2097,0.0195503416
2098,0.0195503416
2099,0.0195503416
2100,0.0195503416
2101,0.0195503416
2102,0.0195503416
2103,0.0195503416
2104,0.0195503416
2105,0.0195503416
2106,0.0195503416
2107,0.0195503416
2108,0.0195503416
2109,0.0097751703
2110,0.0195503416
2111,0.0195503416
2112,0.0195503416
2113,0.0195503416
2114,0.0195503416
2115,0.0195503416
2116,0.0195503416
2117,0.0195503416
2118,0.0293255119
2119,0.0195503416
2120,0.0195503416
2121,0.0195503416
2122,0.0195503416
2123,0.0293255119
2124,0.0195503416
2125,0.0195503416
2126,0.0195503416
2127,0.0195503416
2128,0.0195503416
2129,0.0195503416
2130,0.0195503416
2131,0.0195503416
2132,0.0195503416
2133,0.0195503416
2134,0.0195503416
2135,0.0195503416
2136,0.0195503416
2137,0.0195503416
2138,0.0195503416
2139,0.0195503416
2140,0.0195503416
2141,0.0293255119
2142,0.0195503416
2143,0.0195503416
2144,0.0195503416
2145,0.0195503416
2146,0.0195503416
2147,0.0195503416
2148,0.0195503416
2149,0.0293255119
2150,0.0293255119
2151,0.0293255119
2152,0.0293255119
2153,0.0293255119
2154,0.0391006832
2155,0.0391006832
2156,0.0391006832
2157,0.0391006832
2158,0.0391006832
2159,0.0293255119
2160,0.0293255119
2161,0.0391006832
2162,0.0391006832
2163,0.0391006832
2164,0.0293255119
2165,0.0391006832
2166,0.0293255119
2167,0.0293255119
2168,0.0293255119
2169,0.0293255119
2170,0.0391006832
2171,0.0293255119
2172,0.0293255119
2173,0.0293255119
2174,0.0293255119
2175,0.0293255119
2176,0.0293255119
2177,0.0293255119
2178,0.0293255119
2179,0.0195503416
2180,0.0195503416
2181,0.0195503416
2182,0.0195503416
2183,0.0293255119
2184,0.0293255119
2185,0.0293255119
2186,0.0195503416
2187,0.0195503416
2188,0.0195503416
2189,0.0195503416
2190,0.0195503416
2191,0.0195503416
2192,0.0195503416
2193,0.0195503416
2194,0.0195503416
2195,0.0293255119
2196,0.0195503416
2197,0.0195503416
2198,0.0195503416
2199,0.0293255119
2200,0.0293255119
2201,0.0293255119
2202,0.0293255119
2203,0.0293255119
2204,0.0195503416
2205,0.0195503416
2206,0.0195503416
2207,0.0195503416
2208,0.0195503416
2209,0.0195503416
2210,0.0195503416
2211,0.0195503416
2212,0.0195503416
2213,0.0195503416
2214,0.0293255119
2215,0.0293255119
2216,0.0293255119
2217,0.0293255119
2218,0.0195503416
2219,0.0293255119
2220,0.0293255119
2221,0.0293255119
2222,0.0293255119
2223,0.0293255119
2224,0.0293255119
2225,0.0293255119
2226,0.0293255119
2227,0.0293255119
2228,0.0391006832
2229,0.0391006832
2230,0.0488758516
2231,0.0586510229
2232,0.0586510229
2233,0.0586510229
2234,0.0586510229
2235,0.0586510229
2236,0.0586510229
2237,0.0586510229
2238,0.0586510229
2239,0.0488758516
2240,0.0488758516
2241,0.0488758516
2242,0.0488758516
2243,0.0488758516
2244,0.0488758516
2245,0.0488758516
2246,0.0586510229
2247,0.0488758516
2248,0.0488758516
2249,0.0391006832
2250,0.0488758516
2251,0.0488758516
2252,0.0391006832
2253,0.0391006832
2254,0.0391006832
2255,0.0488758516
2256,0.0391006832
2257,0.0391006832
2258,0.0391006832
2259,0.0391006832
2260,0.0293255119
2261,0.0293255119
2262,0.0391006832
2263,0.0391006832
2264,0.0391006832
2265,0.0293255119
2266,0.0293255119
2267,0.0293255119
2268,0.0391006832
2269,0.0293255119
2270,0.0293255119
2271,0.0293255119
2272,0.0293255119
2273,0.0391006832
2274,0.0391006832
2275,0.0293255119
2276,0.0391006832
2277,0.0391006832
2278,0.0391006832
2279,0.0391006832
2280,0.0488758516
2281,0.0391006832
2282,0.0391006832
2283,0.0293255119
2284,0.0293255119
2285,0.0293255119
2286,0.0195503416
2287,0.0195503416
2288,0.0195503416
2289,0.0097751703
2290,0.0097751703
2291,0.0097751703
2292,0.0097751703
2293,0.0000000000
2294,0.0000000000
2295,0.0000000000
2296,0.0000000000
2297,0.0000000000
2298,0.0000000000
2299,0.0097751703
2300,0.0097751703
2301,0.0097751703
2302,0.0097751703
2303,0.0097751703
2304,0.0097751703
2305,0.0097751703
2306,0.0097751703
2307,0.0097751703
2308,0.0000000000
2309,0.0000000000
2310,0.0000000000
2311,0.0000000000
2312,0.0000000000
2313,0.0000000000
2314,0.0097751703
2315,0.0097751703
2316,0.0097751703
2317,0.0097751703
2318,0.0195503416
2319,0.0195503416
2320,0.0195503416
2321,0.0195503416
2322,0.0195503416
2323,0.0195503416
2324,0.0195503416
2325,0.0195503416
2326,0.0293255119
2327,0.0293255119
2328,0.0391006832
2329,0.0293255119
2330,0.0293255119
2331,0.0293255119
2332,0.0293255119
2333,0.0293255119
2334,0.0293255119
2335,0.0293255119
2336,0.0293255119
2337,0.0293255119
2338,0.0293255119
2339,0.0293255119
2340,0.0293255119
2341,0.0293255119
2342,0.0293255119
2343,0.0293255119
2344,0.0195503416
2345,0.0195503416
2346,0.0195503416
2347,0.0195503416
2348,0.0293255119
2349,0.0293255119
2350,0.0293255119
2351,0.0195503416
2352,0.0195503416
2353,0.0195503416
2354,0.0195503416
2355,0.0293255119
2356,0.0293255119
2357,0.0293255119
2358,0.0293255119
2359,0.0195503416
2360,0.0195503416
2361,0.0195503416
2362,0.0195503416
2363,0.0195503416
2364,0.0195503416
2365,0.0195503416
2366,0.0195503416
2367,0.0195503416
2368,0.0195503416
2369,0.0195503416
2370,0.0195503416
2371,0.0195503416
2372,0.0195503416
2373,0.0195503416
2374,0.0195503416
2375,0.0293255119
2376,0.0195503416
2377,0.0195503416
2378,0.0195503416
2379,0.0195503416
2380,0.0293255119
2381,0.0293255119
2382,0.0293255119
2383,0.0293255119
2384,0.0195503416
2385,0.0293255119
2386,0.0195503416
2387,0.0195503416
2388,0.0195503416
2389,0.0293255119
2390,0.0293255119
2391,0.0293255119
2392,0.0293255119
2393,0.0293255119
2394,0.0293255119
2395,0.0195503416
2396,0.0195503416
2397,0.0195503416
2398,0.0195503416
2399,0.0293255119
2400,0.0293255119
2401,0.0293255119
2402,0.0293255119
2403,0.0293255119
2404,0.0293255119
2405,0.0195503416
2406,0.0293255119
2407,0.0195503416
2408,0.0195503416
2409,0.0293255119
2410,0.0195503416
2411,0.0195503416
2412,0.0293255119
2413,0.0293255119
2414,0.0293255119
2415,0.0293255119
2416,0.0195503416
2417,0.0195503416
2418,0.0293255119
2419,0.0293255119
2420,0.0391006832
2421,0.0293255119
2422,0.0293255119
2423,0.0293255119
2424,0.0391006832
2425,0.0293255119
2426,0.0293255119
2427,0.0391006832
2428,0.0391006832
2429,0.0391006832
2430,0.0391006832
2431,0.0391006832
2432,0.0391006832
2433,0.0391006832
2434,0.0391006832
2435,0.0391006832
2436,0.0391006832
2437,0.0391006832
2438,0.0391006832
2439,0.0293255119
2440,0.0391006832
2441,0.0391006832
2442,0.0391006832
2443,0.0488758516
2444,0.0684261989
2445,0.0586510229
2446,0.0586510229
2447,0.0586510229
2448,0.0586510229
2449,0.0488758516
2450,0.0488758516
2451,0.0488758516
2452,0.0586510229
2453,0.0586510229
2454,0.0488758516
2455,0.0488758516
2456,0.0488758516
2457,0.0488758516
2458,0.0488758516
2459,0.0488758516
2460,0.0391006832
2461,0.0391006832
2462,0.0391006832
2463,0.0391006832
2464,0.0391006832
2465,0.0293255119
2466,0.0391006832
2467,0.0488758516
2468,0.0391006832
2469,0.0391006832
2470,0.0488758516
2471,0.0488758516
2472,0.0488758516
2473,0.0488758516
2474,0.0488758516
2475,0.0488758516
2476,0.0488758516
2477,0.0488758516
2478,0.0488758516
2479,0.0488758516
2480,0.0586510229
2481,0.0488758516
2482,0.0488758516
2483,0.0391006832
2484,0.0391006832
2485,0.0391006832
2486,0.0293255119
2487,0.0391006832
2488,0.0293255119
2489,0.0195503416
2490,0.0195503416
2491,0.0195503416
2492,0.0195503416
2493,0.0195503416
2494,0.0195503416
2495,0.0195503416
2496,0.0195503416
2497,0.0195503416
2498,0.0293255119
2499,0.0293255119
2500,0.0293255119
2501,0.0293255119
2502,0.0195503416
2503,0.0195503416
2504,0.0195503416
2505,0.0195503416
2506,0.0195503416
2507,0.0195503416
2508,0.0195503416
2509,0.0195503416
2510,0.0195503416
2511,0.0195503416
2512,0.0097751703
2513,0.0097751703
2514,0.0195503416
2515,0.0097751703
2516,0.0195503416
2517,0.0097751703
2518,0.0097751703
2519,0.0097751703
2520,0.0195503416
2521,0.0293255119
2522,0.0195503416
2523,0.0195503416
2524,0.0195503416
2525,0.0195503416
2526,0.0195503416
2527,0.0195503416
2528,0.0195503416
2529,0.0195503416
2530,0.0097751703
2531,0.0195503416
2532,0.0097751703
2533,0.0097751703
2534,0.0195503416
2535,0.0195503416
2536,0.0195503416
2537,0.0195503416
2538,0.0195503416
2539,0.0195503416
2540,0.0195503416
2541,0.0097751703
2542,0.0195503416
2543,0.0195503416
2544,0.0195503416
2545,0.0195503416
2546,0.0097751703
2547,0.0097751703
2548,0.0097751703
2549,0.0195503416
2550,0.0195503416
2551,0.0097751703
2552,0.0097751703
2553,0.0195503416
2554,0.0097751703
2555,0.0195503416
2556,0.0097751703
2557,0.0195503416
2558,0.0195503416
2559,0.0195503416
2560,0.0195503416
2561,0.0195503416
2562,0.0195503416
2563,0.0195503416
2564,0.0195503416
2565,0.0195503416
2566,0.0097751703
2567,0.0097751703
2568,0.0097751703
2569,0.0097751703
2570,0.0097751703
2571,0.0097751703
2572,0.0097751703
2573,0.0195503416
2574,0.0097751703
2575,0.0195503416
2576,0.0195503416
2577,0.0195503416
2578,0.0195503416
2579,0.0293255119
2580,0.0195503416
2581,0.0195503416
2582,0.0195503416
2583,0.0097751703
2584,0.0195503416
2585,0.0097751703
2586,0.0195503416
2587,0.0195503416
2588,0.0195503416
2589,0.0195503416
2590,0.0195503416
2591,0.0195503416
2592,0.0097751703
2593,0.0097751703
2594,0.0195503416
2595,0.0097751703
2596,0.0195503416
2597,0.0097751703
2598,0.0195503416
2599,0.0195503416
2600,0.0195503416
2601,0.0195503416
2602,0.0195503416
2603,0.0195503416
2604,0.0195503416
2605,0.0195503416
2606,0.0195503416
2607,0.0195503416
2608,0.0195503416
2609,0.0195503416
2610,0.0195503416
2611,0.0195503416
2612,0.0097751703
2613,0.0195503416
2614,0.0097751703
2615,0.0097751703
2616,0.0097751703
2617,0.0195503416
2618,0.0195503416
2619,0.0097751703
2620,0.0195503416
2621,0.0195503416
2622,0.0195503416
2623,0.0195503416
2624,0.0195503416
2625,0.0195503416
2626,0.0195503416
2627,0.0195503416
2628,0.0195503416
2629,0.0195503416
2630,0.0195503416
2631,0.0195503416
2632,0.0195503416
2633,0.0195503416
2634,0.0195503416
2635,0.0195503416
2636,0.0195503416
2637,0.0195503416
2638,0.0293255119
2639,0.0195503416
2640,0.0195503416
2641,0.0195503416
2642,0.0195503416
2643,0.0195503416
2644,0.0195503416
2645,0.0195503416
2646,0.0195503416
2647,0.0293255119
2648,0.0293255119
2649,0.0195503416
2650,0.0195503416
2651,0.0195503416
2652,0.0195503416
2653,0.0391006832
2654,0.0391006832
2655,0.0293255119
2656,0.0293255119
2657,0.0391006832
2658,0.0586510229
2659,0.0684261989
2660,0.0684261989
2661,0.0586510229
2662,0.0684261989
2663,0.0586510229
2664,0.0586510229
2665,0.0586510229
2666,0.0586510229
2667,0.0586510229
2668,0.0488758516
2669,0.0488758516
2670,0.0488758516
2671,0.0488758516
2672,0.0488758516
2673,0.0488758516
2674,0.0391006832
2675,0.0391006832
2676,0.0391006832
2677,0.0391006832
2678,0.0293255119
2679,0.0391006832
2680,0.0391006832
2681,0.0391006832
2682,0.0391006832
2683,0.0391006832
2684,0.0293255119
2685,0.0293255119
2686,0.0391006832
2687,0.0391006832
2688,0.0391006832
2689,0.0391006832
2690,0.0391006832
2691,0.0391006832
2692,0.0391006832
2693,0.0391006832
2694,0.0391006832
2695,0.0488758516
2696,0.0488758516
2697,0.0488758516
2698,0.0488758516
2699,0.0391006832
2700,0.0391006832
2701,0.0391006832
2702,0.0391006832
2703,0.0391006832
2704,0.0293255119
2705,0.0293255119
2706,0.0293255119
2707,0.0293255119
2708,0.0195503416
2709,0.0195503416
2710,0.0195503416
2711,0.0195503416
2712,0.0195503416
2713,0.0195503416
2714,0.0195503416
2715,0.0195503416
2716,0.0195503416
2717,0.0293255119
2718,0.0293255119
2719,0.0293255119
2720,0.0195503416
2721,0.0195503416
2722,0.0195503416
2723,0.0195503416
2724,0.0195503416
2725,0.0195503416
2726,0.0195503416
2727,0.0195503416
2728,0.0195503416
2729,0.0195503416
2730,0.0195503416
2731,0.0195503416
2732,0.0195503416
2733,0.0293255119
2734,0.0195503416
2735,0.0195503416
2736,0.0195503416
2737,0.0195503416
2738,0.0293255119
2739,0.0195503416
2740,0.0195503416
2741,0.0195503416
2742,0.0097751703
2743,0.0097751703
2744,0.0097751703
2745,0.0195503416
2746,0.0195503416
2747,0.0195503416
2748,0.0097751703
2749,0.0195503416
2750,0.0195503416
2751,0.0195503416
2752,0.0195503416
2753,0.0195503416
2754,0.0195503416
2755,0.0195503416
2756,0.0195503416
2757,0.0195503416
2758,0.0195503416
2759,0.0195503416
2760,0.0195503416
2761,0.0195503416
2762,0.0195503416
2763,0.0097751703
2764,0.0195503416
2765,0.0097751703
2766,0.0195503416
2767,0.0195503416
2768,0.0097751703
2769,0.0195503416
2770,0.0195503416
2771,0.0195503416
2772,0.0195503416
2773,0.0195503416
2774,0.0195503416
2775,0.0195503416
2776,0.0195503416
2777,0.0195503416
2778,0.0195503416
2779,0.0195503416
2780,0.0195503416
2781,0.0195503416
2782,0.0195503416
2783,0.0195503416
2784,0.0195503416
2785,0.0195503416
2786,0.0195503416
2787,0.0195503416
2788,0.0195503416
2789,0.0195503416
2790,0.0195503416
2791,0.0195503416
2792,0.0195503416
2793,0.0195503416
2794,0.0195503416
2795,0.0195503416
2796,0.0195503416
2797,0.0195503416
2798,0.0195503416
2799,0.0195503416
2800,0.0195503416
2801,0.0195503416
2802,0.0195503416
2803,0.0293255119
2804,0.0195503416
2805,0.0195503416
2806,0.0195503416
2807,0.0195503416
2808,0.0195503416
2809,0.0195503416
2810,0.0195503416
2811,0.0195503416
2812,0.0195503416
2813,0.0195503416
2814,0.0195503416
2815,0.0195503416
2816,0.0195503416
2817,0.0195503416
2818,0.0195503416
2819,0.0195503416
2820,0.0195503416
2821,0.0195503416
2822,0.0195503416
2823,0.0195503416
2824,0.0195503416
2825,0.0195503416
2826,0.0195503416
2827,0.0195503416
2828,0.0195503416
2829,0.0293255119
2830,0.0293255119
2831,0.0293255119
2832,0.0293255119
2833,0.0195503416
2834,0.0195503416
2835,0.0195503416
2836,0.0195503416
2837,0.0293255119
2838,0.0195503416
2839,0.0195503416
2840,0.0195503416
2841,0.0195503416
2842,0.0195503416
2843,0.0293255119
2844,0.0293255119
2845,0.0195503416
2846,0.0195503416
2847,0.0293255119
2848,0.0293255119
2849,0.0293255119
2850,0.0293255119
2851,0.0195503416
2852,0.0195503416
2853,0.0195503416
2854,0.0097751703
2855,0.0195503416
2856,0.0293255119
2857,0.0293255119
2858,0.0195503416
2859,0.0195503416
2860,0.0195503416
2861,0.0195503416
2862,0.0195503416
2863,0.0195503416
2864,0.0195503416
2865,0.0195503416
2866,0.0195503416
2867,0.0293255119
2868,0.0195503416
2869,0.0195503416
2870,0.0195503416
2871,0.0293255119
2872,0.0293255119
2873,0.0293255119
2874,0.0293255119
2875,0.0293255119
2876,0.0293255119
2877,0.0293255119
2878,0.0195503416
2879,0.0195503416
2880,0.0195503416
2881,0.0195503416
2882,0.0195503416
2883,0.0195503416
2884,0.0195503416
2885,0.0195503416
2886,0.0293255119
2887,0.0293255119
2888,0.0293255119
2889,0.0391006832
2890,0.0293255119
2891,0.0391006832
2892,0.0488758516
2893,0.0488758516
2894,0.0488758516
2895,0.0488758516
2896,0.0488758516
2897,0.0391006832
2898,0.0391006832
2899,0.0391006832
2900,0.0293255119
2901,0.0195503416
2902,0.0195503416
2903,0.0097751703
2904,0.0097751703
2905,0.0097751703
2906,0.0097751703
2907,0.0097751703
2908,0.0097751703
2909,0.0097751703
2910,0.0097751703
2911,0.0097751703
2912,0.0097751703
2913,0.0097751703
2914,0.0097751703
2915,0.0097751703
2916,0.0097751703
2917,0.0097751703
2918,0.0097751703
2919,0.0097751703
2920,0.0097751703
2921,0.0097751703
2922,0.0097751703
2923,0.0000000000
2924,0.0000000000
2925,0.0000000000
2926,0.0000000000
2927,0.0000000000
2928,0.0000000000
2929,0.0000000000
2930,0.0000000000
2931,0.0000000000
2932,0.0000000000
2933,0.0000000000
2934,0.0000000000
2935,0.0097751703
2936,0.0000000000
2937,0.0097751703
2938,0.0097751703
2939,0.0097751703
2940,0.0097751703
2941,0.0195503416
2942,0.0195503416
2943,0.0195503416
2944,0.0195503416
2945,0.0195503416
2946,0.0195503416
2947,0.0097751703
2948,0.0195503416
2949,0.0195503416
2950,0.0097751703
2951,0.0195503416
2952,0.0195503416
2953,0.0195503416
2954,0.0195503416
2955,0.0195503416
2956,0.0195503416
2957,0.0195503416
2958,0.0097751703
2959,0.0195503416
2960,0.0097751703
2961,0.0097751703
2962,0.0097751703
2963,0.0097751703
2964,0.0097751703
2965,0.0097751703
2966,0.0097751703
2967,0.0097751703
2968,0.0097751703
2969,0.0097751703
2970,0.0097751703
2971,0.0097751703
2972,0.0097751703
2973,0.0097751703
2974,0.0097751703
2975,0.0097751703
2976,0.0097751703
2977,0.0097751703
2978,0.0097751703
2979,0.0097751703
2980,0.0097751703
2981,0.0097751703
2982,0.0195503416
2983,0.0097751703
2984,0.0195503416
2985,0.0195503416
2986,0.0293255119
2987,0.0293255119
2988,0.0293255119
2989,0.0293255119
2990,0.0293255119
2991,0.0293255119
2992,0.0391006832
2993,0.0488758516
2994,0.0391006832
2995,0.0391006832
2996,0.0488758516
2997,0.0488758516
2998,0.0488758516
2999,0.0391006832
3000,0.0488758516
3001,0.3910068321
3002,0.3714565038
3003,0.3519061565
3004,0.3421309947
3005,0.3030303001
3006,0.2443792819
3007,0.2052785873
3008,0.1857282543
3009,0.1661779165
3010,0.1564027309
3011,0.1466275596
3012,0.1564027309
3013,0.2443792819
3014,0.3323558330
3015,0.4398827075
3016,0.5376344203
3017,0.5083088874
3018,0.5767350673
3019,0.5376344203
3020,0.5180840492
3021,0.5180840492
3022,0.4301075458
3023,0.3519061565
3024,0.3128054618
3025,0.3030303001
3026,0.3030303001
3027,0.2834799575
3028,0.2443792819
3029,0.2639296054
3030,0.2639296054
3031,0.2346040964
3032,0.2150537729
3033,0.2052785873
3034,0.1857282543
3035,0.1661779165
3036,0.1466275596
3037,0.1368523955
3038,0.1564027309
3039,0.1759530782
3040,0.1466275596
3041,0.1466275596
3042,0.1564027309
3043,0.1368523955
3044,0.1173020482
3045,0.0977517032
3046,0.1075268864
3047,0.1466275596
3048,0.1368523955
3049,0.1857282543
3050,0.1661779165
3051,0.1368523955
3052,0.1368523955
3053,0.1075268864
3054,0.0977517032
3055,0.0977517032
3056,0.0879765415
3057,0.0879765415
3058,0.0782013654
3059,0.0684261989
3060,0.0879765415
3061,0.1075268864
3062,0.0879765415
3063,0.1075268864
3064,0.1270772218
3065,0.1173020482
3066,0.1759530782
3067,0.2052785873
3068,0.2052785873
3069,0.1857282543
3070,0.1759530782
3071,0.1955034160
3072,0.2443792819
3073,0.3225806236
3074,0.3519061565
3075,0.3030303001
3076,0.2737047910
3077,0.2834799575
3078,0.2737047910
3079,0.2541544437
3080,0.2541544437
3081,0.2443792819
3082,0.2443792819
3083,0.2150537729
3084,0.1955034160
3085,0.2737047910
3086,0.3030303001
3087,0.4887585639
3088,0.5571847438
3089,0.5571847438
3090,0.5376344203
3091,0.4887585639
3092,0.4007820129
3093,0.3225806236
3094,0.2737047910
3095,0.2248289346
3096,0.1759530782
3097,0.1466275596
3098,0.1270772218
3099,0.0977517032
3100,0.0879765415
3101,0.0684261989
3102,0.0586510229
3103,0.0586510229
3104,0.0586510229
3105,0.0684261989
3106,0.0684261989
3107,0.0879765415
3108,0.1368523955
3109,0.1466275596
3110,0.1270772218
3111,0.1075268864
3112,0.0977517032
3113,0.1075268864
3114,0.1270772218
3115,0.1173020482
3116,0.1075268864
3117,0.0782013654
3118,0.0684261989
3119,0.0684261989
3120,0.0879765415
3121,0.0879765415
3122,0.0782013654
3123,0.0684261989
3124,0.0684261989
3125,0.0684261989
3126,0.0684261989
3127,0.0684261989
3128,0.0586510229
3129,0.0586510229
3130,0.0586510229
3131,0.0782013654
3132,0.1173020482
3133,0.1368523955
3134,0.1368523955
3135,0.1368523955
3136,0.1173020482
3137,0.1368523955
3138,0.1466275596
3139,0.1270772218
3140,0.1466275596
3141,0.2737047910
3142,0.4301075458
3143,0.4398827075
3144,0.5180840492
3145,0.5083088874
3146,0.5571847438
3147,0.4887585639
3148,0.4105571746
3149,0.3519061565
3150,0.3030303001
3151,0.2639296054
3152,0.2248289346
3153,0.2052785873
3154,0.1661779165
3155,0.1564027309
3156,0.1368523955
3157,0.1368523955
3158,0.1368523955
3159,0.1173020482
3160,0.1173020482
3161,0.1075268864
3162,0.0977517032
3163,0.0879765415
3164,0.1270772218
3165,0.1955034160
3166,0.2248289346
3167,0.1857282543
3168,0.1564027309
3169,0.1368523955
3170,0.1173020482
3171,0.1075268864
3172,0.0977517032
3173,0.0977517032
3174,0.0782013654
3175,0.0684261989
3176,0.0684261989
3177,0.0684261989
3178,0.0684261989
3179,0.0586510229
3180,0.0586510229
3181,0.0586510229
3182,0.0782013654
3183,0.0879765415
3184,0.0879765415
3185,0.0879765415
3186,0.0782013654
3187,0.0782013654
3188,0.1075268864
3189,0.1466275596
3190,0.1368523955
3191,0.1368523955
3192,0.1173020482
3193,0.1661779165
3194,0.2248289346
3195,0.2150537729
3196,0.2052785873
3197,0.1759530782
3198,0.1466275596
3199,0.1270772218
3200,0.1173020482
3201,0.1075268864
3202,0.0879765415
3203,0.0782013654
3204,0.0684261989
3205,0.0684261989
3206,0.0586510229
3207,0.0586510229
3208,0.0586510229
3209,0.0586510229
3210,0.0586510229
3211,0.0488758516
3212,0.0488758516
3213,0.0488758516
3214,0.0586510229
3215,0.0684261989
3216,0.0684261989
3217,0.0586510229
3218,0.0684261989
3219,0.0684261989
3220,0.0586510229
3221,0.0586510229
3222,0.0488758516
3223,0.0586510229
3224,0.0684261989
3225,0.0684261989
3226,0.0684261989
3227,0.0684261989
3228,0.0684261989
3229,0.0684261989
3230,0.0782013654
3231,0.0684261989
3232,0.0684261989
3233,0.0684261989
3234,0.0879765415
3235,0.1075268864
3236,0.1173020482
3237,0.0977517032
3238,0.0977517032
3239,0.0879765415
3240,0.1270772218
3241,0.1368523955
3242,0.1173020482
3243,0.1368523955
3244,0.1270772218
3245,0.1075268864
3246,0.0977517032
3247,0.0977517032
3248,0.0879765415
3249,0.0782013654
3250,0.0879765415
3251,0.0782013654
3252,0.0977517032
3253,0.0977517032
3254,0.0977517032
3255,0.0782013654
3256,0.1564027309
3257,0.1759530782
3258,0.1857282543
3259,0.2541544437
3260,0.2639296054
3261,0.3812316703
3262,0.3519061565
3263,0.3030303001
3264,0.3128054618
3265,0.3030303001
3266,0.2443792819
3267,0.2052785873
3268,0.1759530782
3269,0.1759530782
3270,0.2052785873
3271,0.2443792819
3272,0.2737047910
3273,0.3323558330
3274,0.4301075458
3275,0.6451612472
3276,1.0166177749
3277,1.0361680984
3278,0.9481915473
3279,0.9579667091
3280,0.8602150917
3281,0.6940371513
3282,0.6158357620
3283,0.5669599056
3284,0.4789833545
3285,0.3910068321
3286,0.3323558330
3287,0.2834799575
3288,0.2346040964
3289,0.1955034160
3290,0.1661779165
3291,0.1466275596
3292,0.1173020482
3293,0.0977517032
3294,0.0782013654
3295,0.0684261989
3296,0.0684261989
3297,0.0684261989
3298,0.0782013654
3299,0.0879765415
3300,0.0782013654
3301,0.0684261989
3302,0.0977517032
3303,0.1173020482
3304,0.1075268864
3305,0.1368523955
3306,0.1759530782
3307,0.1759530782
3308,0.1759530782
3309,0.1661779165
3310,0.1466275596
3311,0.1173020482
3312,0.0977517032
3313,0.0782013654
3314,0.0684261989
3315,0.0684261989
3316,0.0977517032
3317,0.0977517032
3318,0.0977517032
3319,0.1075268864
3320,0.1564027309
3321,0.1955034160
3322,0.1955034160
3323,0.1759530782
3324,0.2052785873
3325,0.2346040964
3326,0.2541544437
3327,0.2639296054
3328,0.2346040964
3329,0.2150537729
3330,0.1857282543
3331,0.1759530782
3332,0.1564027309
3333,0.1466275596
3334,0.1270772218
3335,0.1173020482
3336,0.1661779165
3337,0.2443792819
3338,0.3519061565
3339,0.3128054618
3340,0.3128054618
3341,0.3519061565
3342,0.3616813421
3343,0.3128054618
3344,0.2834799575
3345,0.2443792819
3346,0.2150537729
3347,0.1857282543
3348,0.1661779165
3349,0.1466275596
3350,0.1173020482
3351,0.0977517032
3352,0.0879765415
3353,0.0782013654
3354,0.0684261989
3355,0.0782013654
3356,0.0879765415
3357,0.0977517032
3358,0.0977517032
3359,0.0782013654
3360,0.0684261989
3361,0.0586510229
3362,0.0586510229
3363,0.0586510229
3364,0.0586510229
3365,0.0586510229
3366,0.0488758516
3367,0.0391006832
3368,0.0391006832
3369,0.0293255119
3370,0.0293255119
3371,0.0195503416
3372,0.0195503416
3373,0.0195503416
3374,0.0195503416
3375,0.0195503416
3376,0.0195503416
3377,0.0195503416
3378,0.0195503416
3379,0.0195503416
3380,0.0293255119
3381,0.0391006832
3382,0.0684261989
3383,0.0782013654
3384,0.0684261989
3385,0.0586510229
3386,0.0586510229
3387,0.0782013654
3388,0.1270772218
3389,0.1368523955
3390,0.1368523955
3391,0.1173020482
3392,0.1466275596
3393,0.1857282543
3394,0.1857282543
3395,0.1759530782
3396,0.1466275596
3397,0.1270772218
3398,0.1368523955
3399,0.1661779165
3400,0.1759530782
3401,0.1759530782
3402,0.1564027309
3403,0.1368523955
3404,0.1270772218
3405,0.1270772218
3406,0.1173020482
3407,0.1173020482
3408,0.1075268864
3409,0.0977517032
3410,0.0977517032
3411,0.0879765415
3412,0.1075268864
3413,0.0977517032
3414,0.0879765415
3415,0.0879765415
3416,0.0782013654
3417,0.0782013654
3418,0.0782013654
3419,0.0977517032
3420,0.0879765415
3421,0.0782013654
3422,0.0684261989
3423,0.0684261989
3424,0.0684261989
3425,0.0488758516
3426,0.0782013654
3427,0.0879765415
3428,0.0977517032
3429,0.1075268864
3430,0.0879765415
3431,0.0782013654
3432,0.0782013654
3433,0.0684261989
3434,0.0879765415
3435,0.0977517032
3436,0.1564027309
3437,0.2443792819
3438,0.2639296054
3439,0.2834799575
3440,0.2346040964
3441,0.2737047910
3442,0.3225806236
3443,0.3421309947
3444,0.2834799575
3445,0.2639296054
3446,0.3030303001
3447,0.3323558330
3448,0.4789833545
3449,0.4789833545
3450,0.5083088874
3451,0.4887585639
3452,0.4692081928
3453,0.4887585639
3454,0.5474095821
3455,0.5865102291
3456,0.5376344203
3457,0.6256109237
3458,0.6647116661
3459,0.5474095821
3460,0.5083088874
3461,0.4398827075
3462,0.3519061565
3463,0.3030303001
3464,0.2737047910
3465,0.2541544437
3466,0.2443792819
3467,0.2443792819
3468,0.2541544437
3469,0.2248289346
3470,0.2052785873
3471,0.2052785873
3472,0.1857282543
3473,0.1564027309
3474,0.1368523955
3475,0.1173020482
3476,0.1075268864
3477,0.1270772218
3478,0.1466275596
3479,0.1466275596
3480,0.1466275596
3481,0.1466275596
3482,0.1270772218
3483,0.1173020482
3484,0.0977517032
3485,0.0879765415
3486,0.0879765415
3487,0.0977517032
3488,0.0782013654
3489,0.0879765415
3490,0.0879765415
3491,0.0977517032
3492,0.0879765415
3493,0.1173020482
3494,0.1270772218
3495,0.0977517032
3496,0.2932551193
3497,0.2737047910
3498,0.2737047910
3499,0.2737047910
3500,0.2932551193
3501,0.2541544437
3502,0.2150537729
3503,0.1661779165
3504,0.1466275596
3505,0.1466275596
3506,0.1564027309
3507,0.1759530782
3508,0.2052785873
3509,0.2443792819
3510,0.3519061565
3511,0.4594330310
3512,0.4496578693
3513,0.4301075458
3514,0.4007820129
3515,0.6744868278
3516,0.8113391876
3517,0.7722384929
3518,0.6744868278
3519,0.5474095821
3520,0.4398827075
3521,0.3714565038
3522,0.2932551193
3523,0.2639296054
3524,0.2443792819
3525,0.2248289346
3526,0.2052785873
3527,0.2248289346
3528,0.2346040964
3529,0.2443792819
3530,0.2639296054
3531,0.2541544437
3532,0.2150537729
3533,0.2150537729
3534,0.2150537729
3535,0.1955034160
3536,0.1955034160
3537,0.1857282543
3538,0.1661779165
3539,0.1368523955
3540,0.1075268864
3541,0.0879765415
3542,0.0684261989
3543,0.0684261989
3544,0.0586510229
3545,0.0586510229
3546,0.0488758516
3547,0.0488758516
3548,0.0684261989
3549,0.0879765415
3550,0.0977517032
3551,0.1173020482
3552,0.1075268864
3553,0.1075268864
3554,0.0879765415
3555,0.0879765415
3556,0.0977517032
3557,0.1173020482
3558,0.0977517032
3559,0.0782013654
3560,0.0684261989
3561,0.0586510229
3562,0.0879765415
3563,0.1075268864
3564,0.1564027309
3565,0.1857282543
3566,0.2052785873
3567,0.1759530782
3568,0.1564027309
3569,0.1857282543
3570,0.2052785873
3571,0.1857282543
3572,0.1564027309
3573,0.1466275596
3574,0.1466275596
3575,0.1661779165
3576,0.2150537729
3577,0.2443792819
3578,0.2248289346
3579,0.2150537729
3580,0.1857282543
3581,0.1564027309
3582,0.1466275596
3583,0.1270772218
3584,0.1075268864
3585,0.1075268864
3586,0.0977517032
3587,0.0879765415
3588,0.0879765415
3589,0.0879765415
3590,0.0879765415
3591,0.0977517032
3592,0.1661779165
3593,0.1955034160
3594,0.2150537729
3595,0.2150537729
3596,0.2443792819
3597,0.2737047910
3598,0.2834799575
3599,0.2443792819
3600,0.2443792819
3601,0.2248289346
3602,0.2248289346
3603,0.1955034160
3604,0.1661779165
3605,0.1466275596
3606,0.1368523955
3607,0.1173020482
3608,0.1270772218
3609,0.1075268864
3610,0.0879765415
3611,0.0782013654
3612,0.0782013654
3613,0.0977517032
3614,0.1270772218
3615,0.1661779165
3616,0.2150537729
3617,0.1857282543
3618,0.1564027309
3619,0.1466275596
3620,0.1759530782
3621,0.2737047910
3622,0.3225806236
3623,0.2932551193
3624,0.2443792819
3625,0.2248289346
3626,0.2346040964
3627,0.2150537729
3628,0.2443792819
3629,0.2346040964
3630,0.2443792819
3631,0.3225806236
3632,0.4007820129
3633,0.5278592109
3634,0.6940371513
3635,0.6744868278
3636,0.6158357620
3637,0.5474095821
3638,0.4692081928
3639,0.3714565038
3640,0.3128054618
3641,0.2639296054
3642,0.2541544437
3643,0.2248289346
3644,0.2248289346
3645,0.2248289346
3646,0.2052785873
3647,0.1759530782
3648,0.1466275596
3649,0.1270772218
3650,0.1173020482
3651,0.1075268864
3652,0.1270772218
3653,0.1270772218
3654,0.1075268864
3655,0.1075268864
3656,0.0977517032
3657,0.1075268864
3658,0.1075268864
3659,0.0977517032
3660,0.0879765415
3661,0.0684261989
3662,0.0586510229
3663,0.0586510229
3664,0.0586510229
3665,0.0488758516
3666,0.0488758516
3667,0.0586510229
3668,0.0586510229
3669,0.0586510229
3670,0.0586510229
3671,0.0488758516
3672,0.0488758516
3673,0.0391006832
3674,0.0391006832
3675,0.0488758516
3676,0.0684261989
3677,0.0684261989
3678,0.0977517032
3679,0.1075268864
3680,0.0977517032
3681,0.0879765415
3682,0.0879765415
3683,0.0977517032
3684,0.1173020482
3685,0.1173020482
3686,0.1173020482
3687,0.1466275596
3688,0.2932551193
3689,0.3323558330
3690,0.4007820129
3691,0.4007820129
3692,0.4594330310
3693,0.4496578693
3694,0.3812316703
3695,0.3323558330
3696,0.2932551193
3697,0.2541544437
3698,0.2248289346
3699,0.1955034160
3700,0.1759530782
3701,0.1661779165
3702,0.1466275596
3703,0.1270772218
3704,0.1075268864
3705,0.0879765415
3706,0.0782013654
3707,0.0879765415
3708,0.0879765415
3709,0.0782013654
3710,0.0684261989
3711,0.0684261989
3712,0.0684261989
3713,0.0684261989
3714,0.0782013654
3715,0.1075268864
3716,0.1270772218
3717,0.1368523955
3718,0.1368523955
3719,0.1075268864
3720,0.1075268864
3721,0.1466275596
3722,0.1564027309
3723,0.1368523955
3724,0.1564027309
3725,0.1955034160
3726,0.2052785873
3727,0.2150537729
3728,0.2150537729
3729,0.2248289346
3730,0.2443792819
3731,0.2346040964
3732,0.2052785873
3733,0.1759530782
3734,0.1759530782
3735,0.1466275596
3736,0.1368523955
3737,0.1270772218
3738,0.1173020482
3739,0.1173020482
3740,0.1368523955
3741,0.1564027309
3742,0.1759530782
3743,0.1466275596
3744,0.1368523955
3745,0.1173020482
3746,0.1270772218
3747,0.1173020482
3748,0.1857282543
3749,0.3421309947
3750,0.3323558330
3751,0.3128054618
3752,0.2932551193
3753,0.2737047910
3754,0.2346040964
3755,0.1955034160
3756,0.1661779165
3757,0.1466275596
3758,0.1270772218
3759,0.1075268864
3760,0.0977517032
3761,0.0782013654
3762,0.0782013654
3763,0.0684261989
3764,0.0684261989
3765,0.0586510229
3766,0.0586510229
3767,0.0586510229
3768,0.0488758516
3769,0.0586510229
3770,0.0684261989
3771,0.0879765415
3772,0.0684261989
3773,0.0684261989
3774,0.0684261989
3775,0.0879765415
3776,0.1075268864
3777,0.0977517032
3778,0.0977517032
3779,0.1173020482
3780,0.1564027309
3781,0.1466275596
3782,0.1270772218
3783,0.1173020482
3784,0.0977517032
3785,0.0879765415
3786,0.1075268864
3787,0.0977517032
3788,0.0977517032
3789,0.0977517032
3790,0.0879765415
3791,0.0879765415
3792,0.1075268864
3793,0.1075268864
3794,0.0977517032
3795,0.1075268864
3796,0.1173020482
3797,0.0977517032
3798,0.0879765415
3799,0.0879765415
3800,0.0879765415
3801,0.0977517032
3802,0.0977517032
3803,0.1270772218
3804,0.1857282543
3805,0.1661779165
3806,0.1466275596
3807,0.1368523955
3808,0.1466275596
3809,0.1759530782
3810,0.2150537729
3811,0.1955034160
3812,0.2052785873
3813,0.2541544437
3814,0.2541544437
3815,0.2150537729
3816,0.2541544437
3817,0.2346040964
3818,0.2834799575
3819,0.2443792819
3820,0.2150537729
3821,0.1955034160
3822,0.2346040964
3823,0.2639296054
3824,0.2443792819
3825,0.2052785873
3826,0.1955034160
3827,0.2248289346
3828,0.3030303001
3829,0.4105571746
3830,0.3616813421
3831,0.3714565038
3832,0.4007820129
3833,0.4203323364
3834,0.4985337257
3835,0.4594330310
3836,0.4007820129
3837,0.3421309947
3838,0.3030303001
3839,0.2639296054
3840,0.2737047910
3841,0.2834799575
3842,0.2639296054
3843,0.2346040964
3844,0.1955034160
3845,0.1661779165
3846,0.1270772218
3847,0.1075268864
3848,0.0977517032
3849,0.0977517032
3850,0.0879765415
3851,0.0684261989
3852,0.0684261989
3853,0.0586510229
3854,0.0488758516
3855,0.0391006832
3856,0.0391006832
3857,0.0391006832
3858,0.0293255119
3859,0.0293255119
3860,0.0293255119
3861,0.0293255119
3862,0.0293255119
3863,0.0293255119
3864,0.0293255119
3865,0.0293255119
3866,0.0293255119
3867,0.0391006832
3868,0.0391006832
3869,0.0488758516
3870,0.0586510229
3871,0.0684261989
3872,0.0782013654
3873,0.0782013654
3874,0.0782013654
3875,0.0684261989
3876,0.0586510229
3877,0.0684261989
3878,0.0782013654
3879,0.0879765415
3880,0.0782013654
3881,0.0684261989
3882,0.0684261989
3883,0.0879765415
3884,0.1075268864
3885,0.1075268864
3886,0.1368523955
3887,0.1368523955
3888,0.1173020482
3889,0.1075268864
3890,0.1368523955
3891,0.2150537729
3892,0.3323558330
3893,0.4007820129
3894,0.4887585639
3895,0.4398827075
3896,0.4203323364
3897,0.3616813421
3898,0.3323558330
3899,0.2834799575
3900,0.2639296054
3901,0.2443792819
3902,0.2443792819
3903,0.2248289346
3904,0.2052785873
3905,0.1759530782
3906,0.1466275596
3907,0.1270772218
3908,0.1075268864
3909,0.0977517032
3910,0.0782013654
3911,0.0782013654
3912,0.0586510229
3913,0.0684261989
3914,0.0684261989
3915,0.0782013654
3916,0.0684261989
3917,0.0684261989
3918,0.0586510229
3919,0.0684261989
3920,0.0586510229
3921,0.0586510229
3922,0.0684261989
3923,0.0488758516
3924,0.0586510229
3925,0.0488758516
3926,0.0488758516
3927,0.0488758516
3928,0.0488758516
3929,0.0586510229
3930,0.0488758516
3931,0.0488758516
3932,0.0488758516
3933,0.0391006832
3934,0.0488758516
3935,0.0586510229
3936,0.0586510229
3937,0.0586510229
3938,0.0586510229
3939,0.0488758516
3940,0.0391006832
3941,0.0488758516
3942,0.0586510229
3943,0.0586510229
3944,0.0488758516
3945,0.0782013654
3946,0.0684261989
3947,0.1661779165
3948,0.2443792819
3949,0.2150537729
3950,0.1759530782
3951,0.1466275596
3952,0.1270772218
3953,0.1466275596
3954,0.1661779165
3955,0.1466275596
3956,0.1270772218
3957,0.1075268864
3958,0.0879765415
3959,0.0782013654
3960,0.0977517032
3961,0.1173020482
3962,0.1270772218
3963,0.1173020482
3964,0.1075268864
3965,0.0879765415
3966,0.0879765415
3967,0.0782013654
3968,0.0586510229
3969,0.0586510229
3970,0.0586510229
3971,0.0488758516
3972,0.0684261989
3973,0.0684261989
3974,0.0586510229
3975,0.0488758516
3976,0.0488758516
3977,0.0488758516
3978,0.0488758516
3979,0.0391006832
3980,0.0488758516
3981,0.0488758516
3982,0.0488758516
3983,0.0586510229
3984,0.0782013654
3985,0.0782013654
3986,0.1075268864
3987,0.0879765415
3988,0.0782013654
3989,0.0782013654
3990,0.0879765415
3991,0.0782013654
3992,0.0684261989
3993,0.0684261989
3994,0.0782013654
3995,0.0782013654
3996,0.0684261989
3997,0.0488758516
3998,0.0488758516
3999,0.0488758516
4000,0.0782013654
4001,0.5571847438
4002,0.4398827075
4003,0.3519061565
4004,0.2737047910
4005,0.2248289346
4006,0.1759530782
4007,0.1466275596
4008,0.1173020482
4009,0.0977517032
4010,0.0977517032
4011,0.0782013654
4012,0.0684261989
4013,0.0586510229
4014,0.0586510229
4015,0.0488758516
4016,0.0391006832
4017,0.0391006832
4018,0.0488758516
4019,0.0488758516
4020,0.0488758516
4021,0.0488758516
4022,0.0586510229
4023,0.0488758516
4024,0.0488758516
4025,0.0391006832
4026,0.0391006832
4027,0.0293255119
4028,0.0293255119
4029,0.0195503416
4030,0.0097751703
4031,0.0097751703
4032,0.0097751703
4033,0.0195503416
4034,0.0097751703
4035,0.0097751703
4036,0.0097751703
4037,0.0097751703
4038,0.0097751703
4039,0.0097751703
4040,0.0097751703
4041,0.0097751703
4042,0.0097751703
4043,0.0195503416
4044,0.0195503416
4045,0.0097751703
4046,0.0097751703
4047,0.0097751703
4048,0.0097751703
4049,0.0195503416
4050,0.0097751703
4051,0.0097751703
4052,0.0097751703
4053,0.0097751703
4054,0.0097751703
4055,0.0097751703
4056,0.0097751703
4057,0.0097751703
4058,0.0097751703
4059,0.0097751703
4060,0.0097751703
4061,0.0097751703
4062,0.0195503416
4063,0.0195503416
4064,0.0097751703
4065,0.0097751703
4066,0.0097751703
4067,0.0097751703
4068,0.0097751703
4069,0.0097751703
4070,0.0097751703
4071,0.0195503416
4072,0.0195503416
4073,0.0195503416
4074,0.0195503416
4075,0.0195503416
4076,0.0195503416
4077,0.0195503416
4078,0.0097751703
4079,0.0097751703
4080,0.0097751703
4081,0.0097751703
4082,0.0097751703
4083,0.0097751703
4084,0.0097751703
4085,0.0000000000
4086,0.0000000000
4087,0.0000000000
4088,0.0097751703
4089,0.0000000000
4090,0.0000000000
4091,0.0000000000
4092,0.0000000000
4093,0.0000000000
4094,0.0000000000
4095,0.0000000000
4096,0.0000000000
4097,0.0000000000
4098,0.0000000000
4099,0.0000000000
4100,0.0000000000
4101,0.0000000000
4102,0.0000000000
4103,0.0000000000
4104,0.0000000000
4105,0.0000000000
4106,0.0000000000
4107,0.0000000000
4108,0.0000000000
4109,0.0000000000
4110,0.0000000000
4111,0.0000000000
4112,0.0000000000
4113,0.0000000000
4114,0.0000000000
4115,0.0000000000
4116,0.0000000000
4117,0.0000000000
4118,0.0000000000
4119,0.0000000000
4120,0.0000000000
4121,0.0000000000
4122,0.0000000000
4123,0.0000000000
4124,0.0000000000
4125,0.0000000000
4126,0.0000000000
4127,0.0000000000
4128,0.0000000000
4129,0.0000000000
4130,0.0000000000
4131,0.0000000000
4132,0.0000000000
4133,0.0000000000
4134,0.0000000000
4135,0.0000000000
4136,0.0000000000
4137,0.0097751703
4138,0.0000000000
4139,0.0000000000
4140,0.0000000000
4141,0.0097751703
4142,0.0000000000
4143,0.0000000000
4144,0.0097751703
4145,0.0097751703
4146,0.0097751703
4147,0.0097751703
4148,0.0097751703
4149,0.0097751703
4150,0.0097751703
4151,0.0097751703
4152,0.0097751703
4153,0.0195503416
4154,0.0195503416
4155,0.0195503416
4156,0.0293255119
4157,0.0195503416
4158,0.0293255119
4159,0.0293255119
4160,0.0195503416
4161,0.0293255119
4162,0.0293255119
4163,0.0293255119
4164,0.0488758516
4165,0.0391006832
4166,0.0488758516
4167,0.0488758516
4168,0.0782013654
4169,0.0586510229
4170,0.0684261989
4171,0.0586510229
4172,0.0488758516
4173,0.0684261989
4174,0.0586510229
4175,0.0586510229
4176,0.0586510229
4177,0.0488758516
4178,0.0488758516
4179,0.0488758516
4180,0.0488758516
4181,0.0391006832
4182,0.0488758516
4183,0.0488758516
4184,0.0488758516
4185,0.0586510229
4186,0.0488758516
4187,0.0586510229
4188,0.0488758516
4189,0.0391006832
4190,0.0391006832
4191,0.0488758516
4192,0.0391006832
4193,0.0391006832
4194,0.0391006832
4195,0.0391006832
4196,0.0391006832
4197,0.0293255119
4198,0.0293255119
4199,0.0293255119
4200,0.0293255119
4201,0.0293255119
4202,0.0195503416
4203,0.0293255119
4204,0.0293255119
4205,0.0293255119
4206,0.0293255119
4207,0.0293255119
4208,0.0293255119
4209,0.0293255119
4210,0.0195503416
4211,0.0195503416
4212,0.0195503416
4213,0.0195503416
4214,0.0195503416
4215,0.0195503416
4216,0.0195503416
4217,0.0097751703
4218,0.0195503416
4219,0.0195503416
4220,0.0097751703
4221,0.0097751703
4222,0.0195503416
4223,0.0097751703
4224,0.0097751703
4225,0.0097751703
4226,0.0097751703
4227,0.0097751703
4228,0.0097751703
4229,0.0195503416
4230,0.0097751703
4231,0.0097751703
4232,0.0097751703
4233,0.0195503416
4234,0.0195503416
4235,0.0195503416
4236,0.0195503416
4237,0.0195503416
4238,0.0195503416
4239,0.0097751703
4240,0.0195503416
4241,0.0097751703
4242,0.0097751703
4243,0.0195503416
4244,0.0097751703
4245,0.0097751703
4246,0.0097751703
4247,0.0097751703
4248,0.0097751703
4249,0.0097751703
4250,0.0097751703
4251,0.0097751703
4252,0.0097751703
4253,0.0097751703
4254,0.0097751703
4255,0.0097751703
4256,0.0097751703
4257,0.0097751703
4258,0.0097751703
4259,0.0097751703
4260,0.0097751703
4261,0.0097751703
4262,0.0097751703
4263,0.0097751703
4264,0.0097751703
4265,0.0195503416
4266,0.0097751703
4267,0.0097751703
4268,0.0097751703
4269,0.0097751703
4270,0.0097751703
4271,0.0097751703
4272,0.0097751703
4273,0.0097751703
4274,0.0097751703
4275,0.0097751703
4276,0.0097751703
4277,0.0097751703
4278,0.0097751703
4279,0.0097751703
4280,0.0097751703
4281,0.0000000000
4282,0.0000000000
4283,0.0000000000
4284,0.0000000000
4285,0.0000000000
4286,0.0000000000
4287,0.0000000000
4288,0.0000000000
4289,0.0000000000
4290,0.0000000000
4291,0.0000000000
4292,0.0000000000
4293,0.0000000000
4294,0.0000000000
4295,0.0000000000
4296,0.0000000000
4297,0.0000000000
4298,0.0000000000
4299,0.0000000000
4300,0.0000000000
4301,0.0000000000
4302,0.0000000000
4303,0.0000000000
4304,0.0000000000
4305,0.0000000000
4306,0.0000000000
4307,0.0000000000
4308,0.0000000000
4309,0.0000000000
4310,0.0000000000
4311,0.0000000000
4312,0.0000000000
4313,0.0000000000
4314,0.0000000000
4315,0.0000000000
4316,0.0000000000
4317,0.0000000000
4318,0.0000000000
4319,0.0000000000
4320,0.0000000000
4321,0.0000000000
4322,0.0000000000
4323,0.0000000000
4324,0.0000000000
4325,0.0000000000
4326,0.0000000000
4327,0.0000000000
4328,0.0000000000
4329,0.0000000000
4330,0.0000000000
4331,0.0000000000
4332,0.0000000000
4333,0.0000000000
4334,0.0000000000
4335,0.0000000000
4336,0.0097751703
4337,0.0000000000
4338,0.0000000000
4339,0.0000000000
4340,0.0097751703
4341,0.0097751703
4342,0.0097751703
4343,0.0097751703
4344,0.0097751703
4345,0.0097751703
4346,0.0097751703
4347,0.0097751703
4348,0.0097751703
4349,0.0097751703
4350,0.0195503416
4351,0.0195503416
4352,0.0195503416
4353,0.0195503416
4354,0.0195503416
4355,0.0195503416
4356,0.0293255119
4357,0.0293255119
4358,0.0293255119
4359,0.0293255119
4360,0.0293255119
4361,0.0293255119
4362,0.0293255119
4363,0.0293255119
4364,0.0293255119
4365,0.0391006832
4366,0.0391006832
4367,0.0391006832
4368,0.0391006832
4369,0.0391006832
4370,0.0391006832
4371,0.0391006832
4372,0.0391006832
4373,0.0391006832
4374,0.0391006832
4375,0.0488758516
4376,0.0586510229
4377,0.0488758516
4378,0.0586510229
4379,0.0782013654
4380,0.0684261989
4381,0.0684261989
4382,0.0782013654
4383,0.0684261989
4384,0.0684261989
4385,0.0684261989
4386,0.0684261989
4387,0.0586510229
4388,0.0488758516
4389,0.0488758516
4390,0.0391006832
4391,0.0488758516
4392,0.0488758516
4393,0.0488758516
4394,0.0488758516
4395,0.0488758516
4396,0.0391006832
4397,0.0391006832
4398,0.0293255119
4399,0.0391006832
4400,0.0293255119
4401,0.0391006832
4402,0.0391006832
4403,0.0391006832
4404,0.0488758516
4405,0.0391006832
4406,0.0391006832
4407,0.0391006832
4408,0.0391006832
4409,0.0391006832
4410,0.0391006832
4411,0.0488758516
4412,0.0391006832
4413,0.0391006832
4414,0.0391006832
4415,0.0391006832
4416,0.0293255119
4417,0.0293255119
4418,0.0293255119
4419,0.0293255119
4420,0.0195503416
4421,0.0195503416
4422,0.0195503416
4423,0.0097751703
4424,0.0195503416
4425,0.0195503416
4426,0.0195503416
4427,0.0195503416
4428,0.0195503416
4429,0.0097751703
4430,0.0097751703
4431,0.0097751703
4432,0.0097751703
4433,0.0195503416
4434,0.0195503416
4435,0.0195503416
4436,0.0097751703
4437,0.0097751703
4438,0.0097751703
4439,0.0097751703
4440,0.0097751703
4441,0.0097751703
4442,0.0097751703
4443,0.0195503416
4444,0.0097751703
4445,0.0097751703
4446,0.0097751703
4447,0.0195503416
4448,0.0195503416
4449,0.0097751703
4450,0.0097751703
4451,0.0097751703
4452,0.0097751703
4453,0.0097751703
4454,0.0097751703
4455,0.0000000000
4456,0.0000000000
4457,0.0000000000
4458,0.0000000000
4459,0.0000000000
4460,0.0000000000
4461,0.0000000000
4462,0.0000000000
4463,0.0000000000
4464,0.0000000000
4465,0.0000000000
4466,0.0000000000
4467,0.0000000000
4468,0.0000000000
4469,0.0000000000
4470,0.0000000000
4471,0.0000000000
4472,0.0000000000
4473,0.0000000000
4474,0.0000000000
4475,0.0000000000
4476,0.0000000000
4477,0.0000000000
4478,0.0000000000
4479,0.0000000000
4480,0.0000000000
4481,0.0000000000
4482,0.0000000000
4483,0.0000000000
4484,0.0000000000
4485,0.0000000000
4486,0.0000000000
4487,0.0000000000
4488,0.0000000000
4489,0.0000000000
4490,0.0000000000
4491,0.0000000000
4492,0.0000000000
4493,0.0000000000
4494,0.0000000000
4495,0.0000000000
4496,0.0000000000
4497,0.0000000000
4498,0.0000000000
4499,0.0000000000
4500,0.0000000000
4501,0.0000000000
4502,0.0000000000
4503,0.0000000000
4504,0.0000000000
4505,0.0000000000
4506,0.0000000000
4507,0.0000000000
4508,0.0000000000
4509,0.0000000000
4510,0.0000000000
4511,0.0000000000
4512,0.0000000000
4513,0.0000000000
4514,0.0000000000
4515,0.0000000000
4516,0.0000000000
4517,0.0000000000
4518,0.0000000000
4519,0.0000000000
4520,0.0000000000
4521,0.0000000000
4522,0.0000000000
4523,0.0000000000
4524,0.0000000000
4525,0.0000000000
4526,0.0000000000
4527,0.0000000000
4528,0.0000000000
4529,0.0000000000
4530,0.0000000000
4531,0.0000000000
4532,0.0000000000
4533,0.0000000000
4534,0.0000000000
4535,0.0000000000
4536,0.0000000000
4537,0.0000000000
4538,0.0000000000
4539,0.0000000000
4540,0.0097751703
4541,0.0097751703
4542,0.0097751703
4543,0.0097751703
4544,0.0195503416
4545,0.0195503416
4546,0.0195503416
4547,0.0293255119
4548,0.0293255119
4549,0.0293255119
4550,0.0293255119
4551,0.0195503416
4552,0.0195503416
4553,0.0195503416
4554,0.0195503416
4555,0.0293255119
4556,0.0293255119
4557,0.0293255119
4558,0.0293255119
4559,0.0195503416
4560,0.0195503416
4561,0.0293255119
4562,0.0293255119
4563,0.0391006832
4564,0.0488758516
4565,0.0488758516
4566,0.0391006832
4567,0.0488758516
4568,0.0488758516
4569,0.0488758516
4570,0.0391006832
4571,0.0391006832
4572,0.0391006832
4573,0.0293255119
4574,0.0391006832
4575,0.0391006832
4576,0.0293255119
4577,0.0391006832
4578,0.0488758516
4579,0.0488758516
4580,0.0391006832
4581,0.0391006832
4582,0.0293255119
4583,0.0293255119
4584,0.0293255119
4585,0.0195503416
4586,0.0195503416
4587,0.0195503416
4588,0.0195503416
4589,0.0195503416
4590,0.0195503416
4591,0.0293255119
4592,0.0293255119
4593,0.0391006832
4594,0.0391006832
4595,0.0293255119
4596,0.0195503416
4597,0.0195503416
4598,0.0195503416
4599,0.0195503416
4600,0.0195503416
4601,0.0293255119
4602,0.0195503416
4603,0.0293255119
4604,0.0293255119
4605,0.0195503416
4606,0.0293255119
4607,0.0195503416
4608,0.0195503416
4609,0.0195503416
4610,0.0195503416
4611,0.0195503416
4612,0.0195503416
4613,0.0195503416
4614,0.0195503416
4615,0.0195503416
4616,0.0293255119
4617,0.0293255119
4618,0.0293255119
4619,0.0195503416
4620,0.0195503416
4621,0.0097751703
4622,0.0097751703
4623,0.0195503416
4624,0.0097751703
4625,0.0097751703
4626,0.0097751703
4627,0.0097751703
4628,0.0195503416
4629,0.0097751703
4630,0.0097751703
4631,0.0097751703
4632,0.0097751703
4633,0.0097751703
4634,0.0097751703
4635,0.0097751703
4636,0.0097751703
4637,0.0097751703
4638,0.0097751703
4639,0.0097751703
4640,0.0097751703
4641,0.0097751703
4642,0.0097751703
4643,0.0097751703
4644,0.0097751703
4645,0.0097751703
4646,0.0000000000
4647,0.0097751703
4648,0.0097751703
4649,0.0097751703
4650,0.0000000000
4651,0.0000000000
4652,0.0097751703
4653,0.0000000000
4654,0.0000000000
4655,0.0000000000
4656,0.0000000000
4657,0.0000000000
4658,0.0000000000
4659,0.0000000000
4660,0.0000000000
4661,0.0000000000
4662,0.0000000000
4663,0.0000000000
4664,0.0000000000
4665,0.0000000000
4666,0.0000000000
4667,0.0000000000
4668,0.0000000000
4669,0.0000000000
4670,0.0000000000
4671,0.0000000000
4672,0.0000000000
4673,0.0000000000
4674,0.0000000000
4675,0.0000000000
4676,0.0000000000
4677,0.0000000000
4678,0.0000000000
4679,0.0000000000
4680,0.0000000000
4681,0.0000000000
4682,0.0000000000
4683,0.0000000000
4684,0.0000000000
4685,0.0000000000
4686,0.0000000000
4687,0.0000000000
4688,0.0000000000
4689,0.0000000000
4690,0.0000000000
4691,0.0000000000
4692,0.0000000000
4693,0.0000000000
4694,0.0000000000
4695,0.0000000000
4696,0.0000000000
4697,0.0000000000
4698,0.0000000000
4699,0.0000000000
4700,0.0000000000
4701,0.0000000000
4702,0.0000000000
4703,0.0000000000
4704,0.0000000000
4705,0.0000000000
4706,0.0000000000
4707,0.0000000000
4708,0.0000000000
4709,0.0000000000
4710,0.0000000000
4711,0.0000000000
4712,0.0000000000
4713,0.0000000000
4714,0.0000000000
4715,0.0000000000
4716,0.0097751703
4717,0.0097751703
4718,0.0097751703
4719,0.0097751703
4720,0.0097751703
4721,0.0097751703
4722,0.0097751703
4723,0.0097751703
4724,0.0195503416
4725,0.0195503416
4726,0.0195503416
4727,0.0195503416
4728,0.0195503416
4729,0.0195503416
4730,0.0195503416
4731,0.0195503416
4732,0.0293255119
4733,0.0293255119
4734,0.0293255119
4735,0.0293255119
4736,0.0293255119
4737,0.0293255119
4738,0.0293255119
4739,0.0195503416
4740,0.0293255119
4741,0.0293255119
4742,0.0293255119
4743,0.0293255119
4744,0.0293255119
4745,0.0391006832
4746,0.0391006832
4747,0.0391006832
4748,0.0488758516
4749,0.0586510229
4750,0.0684261989
4751,0.0586510229
4752,0.0586510229
4753,0.0488758516
4754,0.0391006832
4755,0.0391006832
4756,0.0391006832
4757,0.0293255119
4758,0.0293255119
4759,0.0293255119
4760,0.0293255119
4761,0.0195503416
4762,0.0195503416
4763,0.0195503416
4764,0.0293255119
4765,0.0293255119
4766,0.0293255119
4767,0.0293255119
4768,0.0293255119
4769,0.0391006832
4770,0.0293255119
4771,0.0293255119
4772,0.0293255119
4773,0.0293255119
4774,0.0293255119
4775,0.0195503416
4776,0.0293255119
4777,0.0391006832
4778,0.0391006832
4779,0.0391006832
4780,0.0293255119
4781,0.0293255119
4782,0.0195503416
4783,0.0293255119
4784,0.0293255119
4785,0.0195503416
4786,0.0195503416
4787,0.0097751703
4788,0.0097751703
4789,0.0097751703
4790,0.0097751703
4791,0.0097751703
4792,0.0097751703
4793,0.0097751703
4794,0.0097751703
4795,0.0195503416
4796,0.0097751703
4797,0.0097751703
4798,0.0097751703
4799,0.0195503416
4800,0.0195503416
4801,0.0195503416
4802,0.0195503416
4803,0.0195503416
4804,0.0097751703
4805,0.0097751703
4806,0.0097751703
4807,0.0097751703
4808,0.0097751703
4809,0.0097751703
4810,0.0097751703
4811,0.0097751703
4812,0.0097751703
4813,0.0097751703
4814,0.0097751703
4815,0.0097751703
4816,0.0097751703
4817,0.0097751703
4818,0.0097751703
4819,0.0195503416
4820,0.0097751703
4821,0.0097751703
4822,0.0097751703
4823,0.0097751703
4824,0.0097751703
4825,0.0097751703
4826,0.0195503416
4827,0.0195503416
4828,0.0195503416
4829,0.0195503416
4830,0.0097751703
4831,0.0097751703
4832,0.0097751703
4833,0.0097751703
4834,0.0097751703
4835,0.0097751703
4836,0.0097751703
4837,0.0097751703
4838,0.0097751703
4839,0.0097751703
4840,0.0097751703
4841,0.0000000000
4842,0.0097751703
4843,0.0000000000
4844,0.0000000000
4845,0.0000000000
4846,0.0000000000
4847,0.0000000000
4848,0.0000000000
4849,0.0000000000
4850,0.0000000000
4851,0.0000000000
4852,0.0000000000
4853,0.0000000000
4854,0.0000000000
4855,0.0000000000
4856,0.0000000000
4857,0.0000000000
4858,0.0000000000
4859,0.0000000000
4860,0.0000000000
4861,0.0000000000
4862,0.0000000000
4863,0.0000000000
4864,0.0000000000
4865,0.0000000000
4866,0.0000000000
4867,0.0097751703
4868,0.0097751703
4869,0.0097751703
4870,0.0000000000
4871,0.0097751703
4872,0.0097751703
4873,0.0097751703
4874,0.0097751703
4875,0.0097751703
4876,0.0097751703
4877,0.0097751703
4878,0.0097751703
4879,0.0097751703
4880,0.0000000000
4881,0.0097751703
4882,0.0097751703
4883,0.0097751703
4884,0.0000000000
4885,0.0097751703
4886,0.0097751703
4887,0.0097751703
4888,0.0097751703
4889,0.0097751703
4890,0.0097751703
4891,0.0097751703
4892,0.0097751703
4893,0.0097751703
4894,0.0195503416
4895,0.0097751703
4896,0.0097751703
4897,0.0097751703
4898,0.0195503416
4899,0.0097751703
4900,0.0097751703
4901,0.0097751703
4902,0.0097751703
4903,0.0097751703
4904,0.0195503416
4905,0.0195503416
4906,0.0195503416
4907,0.0195503416
4908,0.0195503416
4909,0.0195503416
4910,0.0195503416
4911,0.0195503416
4912,0.0195503416
4913,0.0195503416
4914,0.0195503416
4915,0.0195503416
4916,0.0195503416
4917,0.0195503416
4918,0.0195503416
4919,0.0195503416
4920,0.0293255119
4921,0.0195503416
4922,0.0195503416
4923,0.0195503416
4924,0.0195503416
4925,0.0293255119
4926,0.0293255119
4927,0.0195503416
4928,0.0293255119
4929,0.0293255119
4930,0.0293255119
4931,0.0293255119
4932,0.0391006832
4933,0.0293255119
4934,0.0391006832
4935,0.0391006832
4936,0.0488758516
4937,0.0391006832
4938,0.0391006832
4939,0.0391006832
4940,0.0488758516
4941,0.0488758516
4942,0.0391006832
4943,0.0391006832
4944,0.0488758516
4945,0.0488758516
4946,0.0488758516
4947,0.0586510229
4948,0.0488758516
4949,0.0488758516
4950,0.0488758516
4951,0.0488758516
4952,0.0488758516
4953,0.0391006832
4954,0.0391006832
4955,0.0391006832
4956,0.0293255119
4957,0.0293255119
4958,0.0195503416
4959,0.0195503416
4960,0.0195503416
4961,0.0195503416
4962,0.0195503416
4963,0.0293255119
4964,0.0391006832
4965,0.0293255119
4966,0.0293255119
4967,0.0293255119
4968,0.0293255119
4969,0.0293255119
4970,0.0293255119
4971,0.0195503416
4972,0.0195503416
4973,0.0195503416
4974,0.0293255119
4975,0.0293255119
4976,0.0293255119
4977,0.0391006832
4978,0.0293255119
4979,0.0293255119
4980,0.0293255119
4981,0.0195503416
4982,0.0195503416
4983,0.0195503416
4984,0.0097751703
4985,0.0097751703
4986,0.0097751703
4987,0.0195503416
4988,0.0195503416
4989,0.0195503416
4990,0.0195503416
4991,0.0195503416
4992,0.0097751703
4993,0.0097751703
4994,0.0097751703
4995,0.0097751703
4996,0.0097751703
4997,0.0097751703
4998,0.0097751703
4999,0.0097751703
5000,0.0097751703
5001,0.1759530782
5002,0.1368523955
5003,0.1173020482
5004,0.0879765415
5005,0.0782013654
5006,0.0684261989
5007,0.0488758516
5008,0.0488758516
5009,0.0488758516
5010,0.0488758516
5011,0.0684261989
5012,0.0977517032
5013,0.1075268864
5014,0.1270772218
5015,0.1270772218
5016,0.1270772218
5017,0.1173020482
5018,0.1075268864
5019,0.0879765415
5020,0.0977517032
5021,0.1173020482
5022,0.1466275596
5023,0.1857282543
5024,0.2052785873
5025,0.2248289346
5026,0.2248289346
5027,0.2541544437
5028,0.2541544437
5029,0.2639296054
5030,0.2346040964
5031,0.1955034160
5032,0.1564027309
5033,0.1270772218
5034,0.1075268864
5035,0.0977517032
5036,0.0977517032
5037,0.0977517032
5038,0.0977517032
5039,0.0977517032
5040,0.0782013654
5041,0.0684261989
5042,0.0684261989
5043,0.0684261989
5044,0.0684261989
5045,0.0782013654
5046,0.0684261989
5047,0.0586510229
5048,0.0488758516
5049,0.0391006832
5050,0.0391006832
5051,0.0293255119
5052,0.0293255119
5053,0.0195503416
5054,0.0195503416
5055,0.0195503416
5056,0.0195503416
5057,0.0195503416
5058,0.0097751703
5059,0.0097751703
5060,0.0097751703
5061,0.0097751703
5062,0.0097751703
5063,0.0097751703
5064,0.0195503416
5065,0.0097751703
5066,0.0293255119
5067,0.0391006832
5068,0.0293255119
5069,0.0293255119
5070,0.0195503416
5071,0.0195503416
5072,0.0195503416
5073,0.0195503416
5074,0.0195503416
5075,0.0293255119
5076,0.0488758516
5077,0.0586510229
5078,0.0684261989
5079,0.0879765415
5080,0.0782013654
5081,0.0782013654
5082,0.0684261989
5083,0.0586510229
5084,0.0586510229
5085,0.0586510229
5086,0.0586510229
5087,0.0488758516
5088,0.0391006832
5089,0.0391006832
5090,0.0293255119
5091,0.0293255119
5092,0.0391006832
5093,0.0488758516
5094,0.0391006832
5095,0.0293255119
5096,0.0293255119
5097,0.0293255119
5098,0.0391006832
5099,0.0391006832
5100,0.0391006832
5101,0.0293255119
5102,0.0195503416
5103,0.0195503416
5104,0.0195503416
5105,0.0293255119
5106,0.0293255119
5107,0.0293255119
5108,0.0293255119
5109,0.0195503416
5110,0.0293255119
5111,0.0293255119
5112,0.0293255119
5113,0.0293255119
5114,0.0195503416
5115,0.0293255119
5116,0.0293255119
5117,0.0293255119
5118,0.0391006832
5119,0.0293255119
5120,0.0293255119
5121,0.0293255119
5122,0.0293255119
5123,0.0293255119
5124,0.0293255119
5125,0.0293255119
5126,0.0293255119
5127,0.0293255119
5128,0.0293255119
5129,0.0293255119
5130,0.0293255119
5131,0.0293255119
5132,0.0488758516
5133,0.0391006832
5134,0.0488758516
5135,0.0586510229
5136,0.0586510229
5137,0.0586510229
5138,0.0684261989
5139,0.0684261989
5140,0.0684261989
5141,0.0586510229
5142,0.0684261989
5143,0.0684261989
5144,0.0782013654
5145,0.0977517032
5146,0.0879765415
5147,0.0782013654
5148,0.0782013654
5149,0.0684261989
5150,0.0684261989
5151,0.0586510229
5152,0.0586510229
5153,0.0684261989
5154,0.0586510229
5155,0.0684261989
5156,0.0879765415
5157,0.1075268864
5158,0.1564027309
5159,0.1955034160
5160,0.1857282543
5161,0.1661779165
5162,0.1759530782
5163,0.2248289346
5164,0.2834799575
5165,0.2834799575
5166,0.2443792819
5167,0.1955034160
5168,0.1759530782
5169,0.1368523955
5170,0.1466275596
5171,0.1661779165
5172,0.2052785873
5173,0.2639296054
5174,0.3225806236
5175,0.3812316703
5176,0.4692081928
5177,0.5669599056
5178,0.6647116661
5179,0.7038123130
5180,0.6060606002
5181,0.5767350673
5182,0.5278592109
5183,0.6549364089
5184,0.5669599056
5185,0.4985337257
5186,0.4496578693
5187,0.4105571746
5188,0.3519061565
5189,0.2834799575
5190,0.2346040964
5191,0.2150537729
5192,0.1857282543
5193,0.1564027309
5194,0.1466275596
5195,0.1466275596
5196,0.1564027309
5197,0.1466275596
5198,0.1270772218
5199,0.0977517032
5200,0.0782013654
5201,0.0684261989
5202,0.0586510229
5203,0.0488758516
5204,0.0488758516
5205,0.0488758516
5206,0.0391006832
5207,0.0391006832
5208,0.0293255119
5209,0.0293255119
5210,0.0195503416
5211,0.0195503416
5212,0.0293255119
5213,0.0195503416
5214,0.0195503416
5215,0.0195503416
5216,0.0195503416
5217,0.0195503416
5218,0.0097751703
5219,0.0097751703
5220,0.0195503416
5221,0.0195503416
5222,0.0195503416
5223,0.0195503416
5224,0.0195503416
5225,0.0293255119
5226,0.0488758516
5227,0.0684261989
5228,0.0586510229
5229,0.0488758516
5230,0.0586510229
5231,0.0586510229
5232,0.0879765415
5233,0.1075268864
5234,0.1173020482
5235,0.1173020482
5236,0.1368523955
5237,0.1857282543
5238,0.2248289346
5239,0.2248289346
5240,0.2052785873
5241,0.2052785873
5242,0.1661779165
5243,0.1368523955
5244,0.1368523955
5245,0.1270772218
5246,0.1075268864
5247,0.0879765415
5248,0.0782013654
5249,0.0684261989
5250,0.0586510229
5251,0.0586510229
5252,0.0488758516
5253,0.0391006832
5254,0.0391006832
5255,0.0293255119
5256,0.0293255119
5257,0.0195503416
5258,0.0195503416
5259,0.0195503416
5260,0.0195503416
5261,0.0195503416
5262,0.0195503416
5263,0.0195503416
5264,0.0097751703
5265,0.0097751703
5266,0.0097751703
5267,0.0097751703
5268,0.0097751703
5269,0.0097751703
5270,0.0195503416
5271,0.0097751703
5272,0.0195503416
5273,0.0293255119
5274,0.0391006832
5275,0.0391006832
5276,0.0293255119
5277,0.0293255119
5278,0.0391006832
5279,0.0488758516
5280,0.0586510229
5281,0.0488758516
5282,0.0391006832
5283,0.0391006832
5284,0.0391006832
5285,0.0391006832
5286,0.0488758516
5287,0.0879765415
5288,0.1466275596
5289,0.1955034160
5290,0.2052785873
5291,0.1661779165
5292,0.1368523955
5293,0.1466275596
5294,0.1564027309
5295,0.1466275596
5296,0.1368523955
5297,0.1173020482
5298,0.0977517032
5299,0.0879765415
5300,0.0879765415
5301,0.0782013654
5302,0.0684261989
5303,0.0586510229
5304,0.0586510229
5305,0.0391006832
5306,0.0391006832
5307,0.0391006832
5308,0.0293255119
5309,0.0293255119
5310,0.0391006832
5311,0.0391006832
5312,0.0293255119
5313,0.0391006832
5314,0.0488758516
5315,0.0391006832
5316,0.0391006832
5317,0.0391006832
5318,0.0391006832
5319,0.0391006832
5320,0.0488758516
5321,0.0488758516
5322,0.0488758516
5323,0.0391006832
5324,0.0684261989
5325,0.0586510229
5326,0.0586510229
5327,0.0586510229
5328,0.0488758516
5329,0.0488758516
5330,0.0488758516
5331,0.0488758516
5332,0.0488758516
5333,0.0488758516
5334,0.0488758516
5335,0.0488758516
5336,0.0586510229
5337,0.0782013654
5338,0.0782013654
5339,0.0879765415
5340,0.0977517032
5341,0.1173020482
5342,0.1270772218
5343,0.1564027309
5344,0.1857282543
5345,0.2248289346
5346,0.2932551193
5347,0.2639296054
5348,0.3030303001
5349,0.2737047910
5350,0.2737047910
5351,0.2932551193
5352,0.3225806236
5353,0.3323558330
5354,0.3128054618
5355,0.3421309947
5356,0.4007820129
5357,0.4692081928
5358,0.5962854385
5359,0.7624633312
5360,0.7331378459
5361,0.6940371513
5362,0.5669599056
5363,0.5083088874
5364,1.0850440216
5365,1.0459432601
5366,0.8895405769
5367,0.7624633312
5368,0.6549364089
5369,0.5962854385
5370,0.5376344203
5371,0.4692081928
5372,0.3812316703
5373,0.3030303001
5374,0.2639296054
5375,0.2150537729
5376,0.1857282543
5377,0.1661779165
5378,0.1661779165
5379,0.1661779165
5380,0.1466275596
5381,0.1173020482
5382,0.1075268864
5383,0.0782013654
5384,0.0684261989
5385,0.0586510229
5386,0.0488758516
5387,0.0488758516
5388,0.0391006832
5389,0.0391006832
5390,0.0586510229
5391,0.0782013654
5392,0.0684261989
5393,0.0586510229
5394,0.0586510229
5395,0.0391006832
5396,0.0391006832
5397,0.0488758516
5398,0.0488758516
5399,0.0391006832
5400,0.0391006832
5401,0.0391006832
5402,0.0488758516
5403,0.0488758516
5404,0.0586510229
5405,0.0684261989
5406,0.0684261989
5407,0.0684261989
5408,0.0586510229
5409,0.0488758516
5410,0.0488758516
5411,0.0782013654
5412,0.1368523955
5413,0.1955034160
5414,0.1759530782
5415,0.1759530782
5416,0.1857282543
5417,0.1759530782
5418,0.1466275596
5419,0.1270772218
5420,0.0977517032
5421,0.0977517032
5422,0.1075268864
5423,0.0977517032
5424,0.0977517032
5425,0.1173020482
5426,0.1075268864
5427,0.0977517032
5428,0.0879765415
5429,0.0782013654
5430,0.0586510229
5431,0.0586510229
5432,0.0488758516
5433,0.0391006832
5434,0.0391006832
5435,0.0391006832
5436,0.0391006832
5437,0.0391006832
5438,0.0293255119
5439,0.0195503416
5440,0.0195503416
5441,0.0195503416
5442,0.0195503416
5443,0.0195503416
5444,0.0195503416
5445,0.0195503416
5446,0.0097751703
5447,0.0097751703
5448,0.0097751703
5449,0.0097751703
5450,0.0097751703
5451,0.0097751703
5452,0.0097751703
5453,0.0097751703
5454,0.0097751703
5455,0.0195503416
5456,0.0097751703
5457,0.0097751703
5458,0.0097751703
5459,0.0097751703
5460,0.0195503416
5461,0.0195503416
5462,0.0195503416
5463,0.0195503416
5464,0.0195503416
5465,0.0195503416
5466,0.0097751703
5467,0.0097751703
5468,0.0097751703
5469,0.0097751703
5470,0.0293255119
5471,0.0391006832
5472,0.0488758516
5473,0.0488758516
5474,0.0391006832
5475,0.0391006832
5476,0.0391006832
5477,0.0391006832
5478,0.0391006832
5479,0.0391006832
5480,0.0391006832
5481,0.0391006832
5482,0.0391006832
5483,0.0391006832
5484,0.0293255119
5485,0.0293255119
5486,0.0293255119
5487,0.0293255119
5488,0.0293255119
5489,0.0293255119
5490,0.0293255119
5491,0.0488758516
5492,0.0488758516
5493,0.0586510229
5494,0.0586510229
5495,0.0586510229
5496,0.0488758516
5497,0.0488758516
5498,0.0586510229
5499,0.0684261989
5500,0.0586510229
5501,0.0586510229
5502,0.0586510229
5503,0.0586510229
5504,0.0586510229
5505,0.0488758516
5506,0.0488758516
5507,0.0684261989
5508,0.0879765415
5509,0.1075268864
5510,0.1173020482
5511,0.0977517032
5512,0.0879765415
5513,0.0782013654
5514,0.0684261989
5515,0.0684261989
5516,0.0684261989
5517,0.0586510229
5518,0.0488758516
5519,0.0488758516
5520,0.0586510229
5521,0.0684261989
5522,0.0879765415
5523,0.1075268864
5524,0.0879765415
5525,0.0977517032
5526,0.1270772218
5527,0.1661779165
5528,0.2248289346
5529,0.2346040964
5530,0.2052785873
5531,0.1759530782
5532,0.1466275596
5533,0.1661779165
5534,0.2052785873
5535,0.2346040964
5536,0.2737047910
5537,0.3128054618
5538,0.3812316703
5539,0.4594330310
5540,0.6158357620
5541,0.7135874748
5542,0.8699902534
5543,0.8504399299
5544,0.8895405769
5545,1.2903225421
5546,1.1534701585
5547,0.9286412239
5548,0.7917888641
5549,0.7135874748
5550,0.6353860855
5551,0.5474095821
5552,0.4496578693
5553,0.3616813421
5554,0.2834799575
5555,0.2346040964
5556,0.2150537729
5557,0.1955034160
5558,0.1759530782
5559,0.1661779165
5560,0.1564027309
5561,0.1466275596
5562,0.1368523955
5563,0.1173020482
5564,0.0977517032
5565,0.0879765415
5566,0.0684261989
5567,0.0684261989
5568,0.0684261989
5569,0.0586510229
5570,0.0488758516
5571,0.0586510229
5572,0.0782013654
5573,0.0879765415
5574,0.0879765415
5575,0.0879765415
5576,0.0879765415
5577,0.0879765415
5578,0.0782013654
5579,0.0586510229
5580,0.0684261989
5581,0.0586510229
5582,0.0684261989
5583,0.0782013654
5584,0.0684261989
5585,0.0586510229
5586,0.0684261989
5587,0.0684261989
5588,0.0684261989
5589,0.0586510229
5590,0.0391006832
5591,0.0391006832
5592,0.0488758516
5593,0.0586510229
5594,0.0684261989
5595,0.0684261989
5596,0.0684261989
5597,0.0586510229
5598,0.0586510229
5599,0.0586510229
5600,0.0684261989
5601,0.0782013654
5602,0.0684261989
5603,0.0782013654
5604,0.0782013654
5605,0.0879765415
5606,0.0977517032
5607,0.0684261989
5608,0.0586510229
5609,0.0488758516
5610,0.0391006832
5611,0.0293255119
5612,0.0293255119
5613,0.0195503416
5614,0.0097751703
5615,0.0097751703
5616,0.0097751703
5617,0.0195503416
5618,0.0097751703
5619,0.0097751703
5620,0.0097751703
5621,0.0097751703
5622,0.0097751703
5623,0.0097751703
5624,0.0097751703
5625,0.0195503416
5626,0.0293255119
5627,0.0293255119
5628,0.0293255119
5629,0.0293255119
5630,0.0195503416
5631,0.0097751703
5632,0.0097751703
5633,0.0097751703
5634,0.0097751703
5635,0.0097751703
5636,0.0097751703
5637,0.0195503416
5638,0.0195503416
5639,0.0293255119
5640,0.0195503416
5641,0.0293255119
5642,0.0195503416
5643,0.0097751703
5644,0.0097751703
5645,0.0097751703
5646,0.0097751703
5647,0.0097751703
5648,0.0097751703
5649,0.0097751703
5650,0.0097751703
5651,0.0097751703
5652,0.0293255119
5653,0.0293255119
5654,0.0391006832
5655,0.0488758516
5656,0.0586510229
5657,0.0488758516
5658,0.0488758516
5659,0.0586510229
5660,0.0488758516
5661,0.0488758516
5662,0.0391006832
5663,0.0391006832
5664,0.0391006832
5665,0.0488758516
5666,0.0391006832
5667,0.0391006832
5668,0.0586510229
5669,0.0684261989
5670,0.0684261989
5671,0.0879765415
5672,0.0879765415
5673,0.0684261989
5674,0.0684261989
5675,0.0684261989
5676,0.0684261989
5677,0.0782013654
5678,0.0684261989
5679,0.0684261989
5680,0.0684261989
5681,0.0684261989
5682,0.0782013654
5683,0.0782013654
5684,0.0782013654
5685,0.1075268864
5686,0.1173020482
5687,0.1173020482
5688,0.1075268864
5689,0.1075268864
5690,0.0977517032
5691,0.0879765415
5692,0.0782013654
5693,0.0782013654
5694,0.0782013654
5695,0.0782013654
5696,0.0782013654
5697,0.0782013654
5698,0.0977517032
5699,0.1270772218
5700,0.1564027309
5701,0.1857282543
5702,0.2443792819
5703,0.2932551193
5704,0.3323558330
5705,0.3421309947
5706,0.2932551193
5707,0.2346040964
5708,0.2052785873
5709,0.2248289346
5710,0.2737047910
5711,0.3323558330
5712,0.3714565038
5713,0.3910068321
5714,0.4301075458
5715,0.5278592109
5716,0.5278592109
5717,0.4692081928
5718,0.4301075458
5719,0.3519061565
5720,0.3421309947
5721,0.5180840492
5722,0.6158357620
5723,0.5278592109
5724,0.6060606002
5725,0.5865102291
5726,0.4887585639
5727,0.4105571746
5728,0.3910068321
5729,0.3812316703
5730,0.3714565038
5731,0.3128054618
5732,0.2443792819
5733,0.2052785873
5734,0.1661779165
5735,0.1368523955
5736,0.1270772218
5737,0.1368523955
5738,0.1368523955
5739,0.1173020482
5740,0.0977517032
5741,0.0782013654
5742,0.0684261989
5743,0.0684261989
5744,0.0586510229
5745,0.0488758516
5746,0.0391006832
5747,0.0391006832
5748,0.0391006832
5749,0.0293255119
5750,0.0195503416
5751,0.0195503416
5752,0.0293255119
5753,0.0195503416
5754,0.0195503416
5755,0.0293255119
5756,0.0391006832
5757,0.0488758516
5758,0.0586510229
5759,0.0782013654
5760,0.0879765415
5761,0.0782013654
5762,0.0586510229
5763,0.0391006832
5764,0.0391006832
5765,0.0293255119
5766,0.0293255119
5767,0.0293255119
5768,0.0586510229
5769,0.0782013654
5770,0.0879765415
5771,0.0684261989
5772,0.0586510229
5773,0.0488758516
5774,0.0586510229
5775,0.0684261989
5776,0.0782013654
5777,0.1075268864
5778,0.1270772218
5779,0.1173020482
5780,0.1466275596
5781,0.1564027309
5782,0.1564027309
5783,0.1759530782
5784,0.1564027309
5785,0.1368523955
5786,0.1173020482
5787,0.0879765415
5788,0.0684261989
5789,0.0684261989
5790,0.0586510229
5791,0.0586510229
5792,0.0391006832
5793,0.0293255119
5794,0.0293255119
5795,0.0293255119
5796,0.0195503416
5797,0.0195503416
5798,0.0097751703
5799,0.0097751703
5800,0.0097751703
5801,0.0097751703
5802,0.0097751703
5803,0.0097751703
5804,0.0097751703
5805,0.0097751703
5806,0.0097751703
5807,0.0195503416
5808,0.0391006832
5809,0.0488758516
5810,0.0488758516
5811,0.0391006832
5812,0.0293255119
5813,0.0293255119
5814,0.0391006832
5815,0.0488758516
5816,0.0586510229
5817,0.0684261989
5818,0.0684261989
5819,0.0684261989
5820,0.0586510229
5821,0.0488758516
5822,0.0391006832
5823,0.0293255119
5824,0.0293255119
5825,0.0391006832
5826,0.0293255119
5827,0.0293255119
5828,0.0293255119
5829,0.0293255119
5830,0.0391006832
5831,0.0586510229
5832,0.0684261989
5833,0.0684261989
5834,0.0586510229
5835,0.0684261989
5836,0.0684261989
5837,0.0684261989
5838,0.0879765415
5839,0.0977517032
5840,0.0977517032
5841,0.1075268864
5842,0.0977517032
5843,0.0879765415
5844,0.0782013654
5845,0.0586510229
5846,0.0684261989
5847,0.0684261989
5848,0.0586510229
5849,0.0586510229
5850,0.0586510229
5851,0.0586510229
5852,0.0586510229
5853,0.0684261989
5854,0.0586510229
5855,0.0586510229
5856,0.0488758516
5857,0.0391006832
5858,0.0488758516
5859,0.0488758516
5860,0.0586510229
5861,0.0684261989
5862,0.0782013654
5863,0.0879765415
5864,0.0879765415
5865,0.0782013654
5866,0.0879765415
5867,0.0977517032
5868,0.0879765415
5869,0.0782013654
5870,0.0977517032
5871,0.1270772218
5872,0.1661779165
5873,0.1857282543
5874,0.1955034160
5875,0.1759530782
5876,0.1466275596
5877,0.1368523955
5878,0.1368523955
5879,0.1661779165
5880,0.1759530782
5881,0.1564027309
5882,0.1368523955
5883,0.1173020482
5884,0.1173020482
5885,0.1173020482
5886,0.1075268864
5887,0.0977517032
5888,0.1173020482
5889,0.1564027309
5890,0.1955034160
5891,0.2150537729
5892,0.1955034160
5893,0.1564027309
5894,0.1368523955
5895,0.1270772218
5896,0.1173020482
5897,0.1368523955
5898,0.1759530782
5899,0.1955034160
5900,0.2346040964
5901,0.2834799575
5902,0.3519061565
5903,0.4692081928
5904,0.5962854385
5905,0.7624633312
5906,0.7624633312
5907,0.6940371513
5908,0.7429130077
5909,0.9872922897
5910,0.8406646728
5911,0.6940371513
5912,0.5962854385
5913,0.5571847438
5914,0.4887585639
5915,0.4203323364
5916,0.3323558330
5917,0.2932551193
5918,0.2443792819
5919,0.2150537729
5920,0.1857282543
5921,0.1661779165
5922,0.1759530782
5923,0.1759530782
5924,0.1759530782
5925,0.1564027309
5926,0.1368523955
5927,0.1075268864
5928,0.0879765415
5929,0.0684261989
5930,0.0586510229
5931,0.0586510229
5932,0.0782013654
5933,0.0684261989
5934,0.0782013654
5935,0.0782013654
5936,0.0586510229
5937,0.0586510229
5938,0.0586510229
5939,0.0586510229
5940,0.0586510229
5941,0.0586510229
5942,0.0586510229
5943,0.0488758516
5944,0.0488758516
5945,0.0391006832
5946,0.0391006832
5947,0.0586510229
5948,0.0586510229
5949,0.0488758516
5950,0.0488758516
5951,0.0391006832
5952,0.0391006832
5953,0.0488758516
5954,0.0488758516
5955,0.0391006832
5956,0.0391006832
5957,0.0391006832
5958,0.0391006832
5959,0.0293255119
5960,0.0293255119
5961,0.0293255119
5962,0.0488758516
5963,0.0586510229
5964,0.0586510229
5965,0.0586510229
5966,0.0488758516
5967,0.0391006832
5968,0.0488758516
5969,0.0391006832
5970,0.0586510229
5971,0.0586510229
5972,0.0586510229
5973,0.0488758516
5974,0.0391006832
5975,0.0391006832
5976,0.0293255119
5977,0.0293255119
5978,0.0195503416
5979,0.0195503416
5980,0.0195503416
5981,0.0195503416
5982,0.0293255119
5983,0.0293255119
5984,0.0293255119
5985,0.0293255119
5986,0.0293255119
5987,0.0391006832
5988,0.0293255119
5989,0.0293255119
5990,0.0293255119
5991,0.0293255119
5992,0.0293255119
5993,0.0293255119
5994,0.0293255119
5995,0.0391006832
5996,0.0586510229
5997,0.0684261989
5998,0.0684261989
5999,0.0684261989
6000,0.0782013654
6001,1.0361680984
6002,0.8211143493
6003,0.6451612472
6004,0.5083088874
6005,0.4105571746
6006,0.3323558330
6007,0.2639296054
6008,0.2150537729
6009,0.1759530782
6010,0.1466275596
6011,0.1173020482
6012,0.0977517032
6013,0.0879765415
6014,0.0684261989
6015,0.0586510229
6016,0.0586510229
6017,0.0488758516
6018,0.0391006832
6019,0.0391006832
6020,0.0293255119
6021,0.0293255119
6022,0.0293255119
6023,0.0195503416
6024,0.0293255119
6025,0.0195503416
6026,0.0195503416
6027,0.0195503416
6028,0.0195503416
6029,0.0293255119
6030,0.0293255119
6031,0.0293255119
6032,0.0293255119
6033,0.0195503416
6034,0.0293255119
6035,0.0293255119
6036,0.0195503416
6037,0.0293255119
6038,0.0293255119
6039,0.0293255119
6040,0.0293255119
6041,0.0391006832
6042,0.0293255119
6043,0.0391006832
6044,0.0488758516
6045,0.0391006832
6046,0.0391006832
6047,0.0488758516
6048,0.0488758516
6049,0.0391006832
6050,0.0391006832
6051,0.0391006832
6052,0.0391006832
6053,0.0293255119
6054,0.0293255119
6055,0.0293255119
6056,0.0293255119
6057,0.0293255119
6058,0.0391006832
6059,0.0488758516
6060,0.0391006832
6061,0.0391006832
6062,0.0391006832
6063,0.0391006832
6064,0.0391006832
6065,0.0391006832
6066,0.0293255119
6067,0.0391006832
6068,0.0293255119
6069,0.0293255119
6070,0.0293255119
6071,0.0293255119
6072,0.0293255119
6073,0.0293255119
6074,0.0293255119
6075,0.0293255119
6076,0.0195503416
6077,0.0195503416
6078,0.0293255119
6079,0.0293255119
6080,0.0293255119
6081,0.0293255119
6082,0.0195503416
6083,0.0293255119
6084,0.0195503416
6085,0.0293255119
6086,0.0488758516
6087,0.0391006832
6088,0.0391006832
6089,0.0391006832
6090,0.0391006832
6091,0.0293255119
6092,0.0195503416
6093,0.0293255119
6094,0.0195503416
6095,0.0195503416
6096,0.0293255119
6097,0.0195503416
6098,0.0293255119
6099,0.0293255119
6100,0.0195503416
6101,0.0195503416
6102,0.0195503416
6103,0.0195503416
6104,0.0195503416
6105,0.0195503416
6106,0.0195503416
6107,0.0293255119
6108,0.0195503416
6109,0.0195503416
6110,0.0195503416
6111,0.0097751703
6112,0.0195503416
6113,0.0195503416
6114,0.0195503416
6115,0.0195503416
6116,0.0195503416
6117,0.0195503416
6118,0.0195503416
6119,0.0097751703
6120,0.0195503416
6121,0.0195503416
6122,0.0195503416
6123,0.0195503416
6124,0.0195503416
6125,0.0195503416
6126,0.0195503416
6127,0.0293255119
6128,0.0391006832
6129,0.0488758516
6130,0.0488758516
6131,0.0391006832
6132,0.0391006832
6133,0.0488758516
6134,0.0488758516
6135,0.0488758516
6136,0.0488758516
6137,0.0488758516
6138,0.0488758516
6139,0.0488758516
6140,0.0391006832
6141,0.0488758516
6142,0.0391006832
6143,0.0391006832
6144,0.0391006832
6145,0.0488758516
6146,0.0488758516
6147,0.0391006832
6148,0.0391006832
6149,0.0391006832
6150,0.0391006832
6151,0.0391006832
6152,0.0391006832
6153,0.0391006832
6154,0.0391006832
6155,0.0391006832
6156,0.0391006832
6157,0.0391006832
6158,0.0293255119
6159,0.0391006832
6160,0.0391006832
6161,0.0391006832
6162,0.0293255119
6163,0.0293255119
6164,0.0293255119
6165,0.0293255119
6166,0.0293255119
6167,0.0293255119
6168,0.0293255119
6169,0.0293255119
6170,0.0293255119
6171,0.0293255119
6172,0.0391006832
6173,0.0293255119
6174,0.0293255119
6175,0.0391006832
6176,0.0391006832
6177,0.0391006832
6178,0.0391006832
6179,0.0391006832
6180,0.0293255119
6181,0.0391006832
6182,0.0293255119
6183,0.0293255119
6184,0.0293255119
6185,0.0293255119
6186,0.0195503416
6187,0.0293255119
6188,0.0293255119
6189,0.0195503416
6190,0.0293255119
6191,0.0195503416
6192,0.0195503416
6193,0.0293255119
6194,0.0293255119
6195,0.0293255119
6196,0.0293255119
6197,0.0195503416
6198,0.0293255119
6199,0.0293255119
6200,0.0391006832
6201,0.0391006832
6202,0.0391006832
6203,0.0391006832
6204,0.0391006832
6205,0.0391006832
6206,0.0293255119
6207,0.0391006832
6208,0.0391006832
6209,0.0391006832
6210,0.0391006832
6211,0.0293255119
6212,0.0293255119
6213,0.0293255119
6214,0.0293255119
6215,0.0293255119
6216,0.0391006832
6217,0.0391006832
6218,0.0391006832
6219,0.0391006832
6220,0.0391006832
6221,0.0391006832
6222,0.0391006832
6223,0.0293255119
6224,0.0391006832
6225,0.0293255119
6226,0.0293255119
6227,0.0391006832
6228,0.0391006832
6229,0.0391006832
6230,0.0488758516
6231,0.0391006832
6232,0.0391006832
6233,0.0391006832
6234,0.0391006832
6235,0.0391006832
6236,0.0293255119
6237,0.0391006832
6238,0.0391006832
6239,0.0391006832
6240,0.0391006832
6241,0.0293255119
6242,0.0391006832
6243,0.0293255119
6244,0.0391006832
6245,0.0293255119
6246,0.0293255119
6247,0.0293255119
6248,0.0293255119
6249,0.0293255119
6250,0.0293255119
6251,0.0195503416
6252,0.0195503416
6253,0.0293255119
6254,0.0195503416
6255,0.0293255119
6256,0.0293255119
6257,0.0195503416
6258,0.0293255119
6259,0.0195503416
6260,0.0195503416
6261,0.0293255119
6262,0.0195503416
6263,0.0195503416
6264,0.0293255119
6265,0.0293255119
6266,0.0391006832
6267,0.0391006832
6268,0.0293255119
6269,0.0293255119
6270,0.0195503416
6271,0.0195503416
6272,0.0195503416
6273,0.0195503416
6274,0.0195503416
6275,0.0195503416
6276,0.0097751703
6277,0.0097751703
6278,0.0097751703
6279,0.0097751703
6280,0.0097751703
6281,0.0097751703
6282,0.0195503416
6283,0.0195503416
6284,0.0195503416
6285,0.0195503416
6286,0.0195503416
6287,0.0195503416
6288,0.0097751703
6289,0.0097751703
6290,0.0097751703
6291,0.0097751703
6292,0.0195503416
6293,0.0097751703
6294,0.0097751703
6295,0.0097751703
6296,0.0097751703
6297,0.0195503416
6298,0.0097751703
6299,0.0097751703
6300,0.0097751703
6301,0.0097751703
6302,0.0097751703
6303,0.0097751703
6304,0.0097751703
6305,0.0097751703
6306,0.0097751703
6307,0.0195503416
6308,0.0097751703
6309,0.0195503416
6310,0.0195503416
6311,0.0195503416
6312,0.0195503416
6313,0.0195503416
6314,0.0195503416
6315,0.0195503416
6316,0.0195503416
6317,0.0195503416
6318,0.0195503416
6319,0.0195503416
6320,0.0195503416
6321,0.0195503416
6322,0.0097751703
6323,0.0097751703
6324,0.0195503416
6325,0.0195503416
6326,0.0195503416
6327,0.0195503416
6328,0.0195503416
6329,0.0195503416
6330,0.0195503416
6331,0.0293255119
6332,0.0195503416
6333,0.0195503416
6334,0.0195503416
6335,0.0195503416
6336,0.0293255119
6337,0.0293255119
6338,0.0195503416
6339,0.0293255119
6340,0.0195503416
6341,0.0195503416
6342,0.0293255119
6343,0.0293255119
6344,0.0391006832
6345,0.0391006832
6346,0.0391006832
6347,0.0391006832
6348,0.0391006832
6349,0.0391006832
6350,0.0293255119
6351,0.0293255119
6352,0.0195503416
6353,0.0195503416
6354,0.0195503416
6355,0.0195503416
6356,0.0195503416
6357,0.0195503416
6358,0.0195503416
6359,0.0195503416
6360,0.0293255119
6361,0.0195503416
6362,0.0293255119
6363,0.0293255119
6364,0.0195503416
6365,0.0195503416
6366,0.0195503416
6367,0.0195503416
6368,0.0293255119
6369,0.0293255119
6370,0.0293255119
6371,0.0293255119
6372,0.0293255119
6373,0.0195503416
6374,0.0195503416
6375,0.0195503416
6376,0.0195503416
6377,0.0195503416
6378,0.0195503416
6379,0.0195503416
6380,0.0195503416
6381,0.0195503416
6382,0.0195503416
6383,0.0195503416
6384,0.0195503416
6385,0.0293255119
6386,0.0195503416
6387,0.0195503416
6388,0.0195503416
6389,0.0195503416
6390,0.0195503416
6391,0.0195503416
6392,0.0293255119
6393,0.0195503416
6394,0.0293255119
6395,0.0293255119
6396,0.0195503416
6397,0.0293255119
6398,0.0195503416
6399,0.0195503416
6400,0.0195503416
6401,0.0195503416
6402,0.0293255119
6403,0.0195503416
6404,0.0293255119
6405,0.0293255119
6406,0.0195503416
6407,0.0293255119
6408,0.0293255119
6409,0.0293255119
6410,0.0293255119
6411,0.0293255119
6412,0.0293255119
6413,0.0293255119
6414,0.0293255119
6415,0.0195503416
6416,0.0195503416
6417,0.0293255119
6418,0.0293255119
6419,0.0293255119
6420,0.0293255119
6421,0.0293255119
6422,0.0195503416
6423,0.0195503416
6424,0.0195503416
6425,0.0293255119
6426,0.0293255119
6427,0.0293255119
6428,0.0391006832
6429,0.0293255119
6430,0.0195503416
6431,0.0293255119
6432,0.0293255119
6433,0.0391006832
6434,0.0391006832
6435,0.0293255119
6436,0.0293255119
6437,0.0293255119
6438,0.0293255119
6439,0.0293255119
6440,0.0293255119
6441,0.0293255119
6442,0.0293255119
6443,0.0488758516
6444,0.0391006832
6445,0.0391006832
6446,0.0293255119
6447,0.0293255119
6448,0.0293255119
6449,0.0195503416
6450,0.0195503416
6451,0.0391006832
6452,0.0586510229
6453,0.0488758516
6454,0.0488758516
6455,0.0391006832
6456,0.0391006832
6457,0.0391006832
6458,0.0391006832
6459,0.0293255119
6460,0.0293255119
6461,0.0195503416
6462,0.0195503416
6463,0.0195503416
6464,0.0195503416
6465,0.0195503416
6466,0.0195503416
6467,0.0195503416
6468,0.0195503416
6469,0.0195503416
6470,0.0195503416
6471,0.0195503416
6472,0.0195503416
6473,0.0195503416
6474,0.0097751703
6475,0.0097751703
6476,0.0097751703
6477,0.0097751703
6478,0.0097751703
6479,0.0097751703
6480,0.0195503416
6481,0.0097751703
6482,0.0195503416
6483,0.0097751703
6484,0.0195503416
6485,0.0195503416
6486,0.0195503416
6487,0.0293255119
6488,0.0293255119
6489,0.0293255119
6490,0.0293255119
6491,0.0293255119
6492,0.0293255119
6493,0.0293255119
6494,0.0293255119
6495,0.0293255119
6496,0.0195503416
6497,0.0195503416
6498,0.0195503416
6499,0.0195503416
6500,0.0195503416
6501,0.0195503416
6502,0.0195503416
6503,0.0195503416
6504,0.0195503416
6505,0.0195503416
6506,0.0195503416
6507,0.0195503416
6508,0.0293255119
6509,0.0195503416
6510,0.0195503416
6511,0.0293255119
6512,0.0293255119
6513,0.0293255119
6514,0.0293255119
6515,0.0293255119
6516,0.0293255119
6517,0.0195503416
6518,0.0195503416
6519,0.0195503416
6520,0.0195503416
6521,0.0195503416
6522,0.0195503416
6523,0.0195503416
6524,0.0195503416
6525,0.0195503416
6526,0.0195503416
6527,0.0195503416
6528,0.0195503416
6529,0.0195503416
6530,0.0195503416
6531,0.0195503416
6532,0.0195503416
6533,0.0195503416
6534,0.0195503416
6535,0.0195503416
6536,0.0195503416
6537,0.0195503416
6538,0.0195503416
6539,0.0293255119
6540,0.0293255119
6541,0.0293255119
6542,0.0195503416
6543,0.0195503416
6544,0.0195503416
6545,0.0195503416
6546,0.0195503416
6547,0.0195503416
6548,0.0195503416
6549,0.0195503416
6550,0.0293255119
6551,0.0195503416
6552,0.0195503416
6553,0.0195503416
6554,0.0195503416
6555,0.0293255119
6556,0.0293255119
6557,0.0195503416
6558,0.0195503416
6559,0.0195503416
6560,0.0195503416
6561,0.0293255119
6562,0.0195503416
6563,0.0293255119
6564,0.0293255119
6565,0.0293255119
6566,0.0391006832
6567,0.0293255119
6568,0.0391006832
6569,0.0293255119
6570,0.0293255119
6571,0.0293255119
6572,0.0293255119
6573,0.0293255119
6574,0.0293255119
6575,0.0293255119
6576,0.0293255119
6577,0.0293255119
6578,0.0293255119
6579,0.0293255119
6580,0.0391006832
6581,0.0293255119
6582,0.0293255119
6583,0.0391006832
6584,0.0391006832
6585,0.0391006832
6586,0.0391006832
6587,0.0391006832
6588,0.0391006832
6589,0.0391006832
6590,0.0391006832
6591,0.0488758516
6592,0.0488758516
6593,0.0391006832
6594,0.0488758516
6595,0.0488758516
6596,0.0488758516
6597,0.0488758516
6598,0.0586510229
6599,0.0488758516
6600,0.0586510229
6601,0.0586510229
6602,0.0488758516
6603,0.0488758516
6604,0.0488758516
6605,0.0488758516
6606,0.0391006832
6607,0.0391006832
6608,0.0391006832
6609,0.0391006832
6610,0.0391006832
6611,0.0391006832
6612,0.0391006832
6613,0.0391006832
6614,0.0391006832
6615,0.0391006832
6616,0.0391006832
6617,0.0391006832
6618,0.0488758516
6619,0.0391006832
6620,0.0488758516
6621,0.0488758516
6622,0.0586510229
6623,0.0488758516
6624,0.0488758516
6625,0.0488758516
6626,0.0488758516
6627,0.0391006832
6628,0.0488758516
6629,0.0391006832
6630,0.0391006832
6631,0.0293255119
6632,0.0391006832
6633,0.0391006832
6634,0.0391006832
6635,0.0391006832
6636,0.0391006832
6637,0.0488758516
6638,0.0488758516
6639,0.0488758516
6640,0.0488758516
6641,0.0488758516
6642,0.0586510229
6643,0.0684261989
6644,0.0684261989
6645,0.0586510229
6646,0.0684261989
6647,0.0684261989
6648,0.0684261989
6649,0.0684261989
6650,0.0684261989
6651,0.0586510229
6652,0.0586510229
6653,0.0586510229
6654,0.0586510229
6655,0.0586510229
6656,0.0488758516
6657,0.0488758516
6658,0.0488758516
6659,0.0488758516
6660,0.0488758516
6661,0.0488758516
6662,0.0488758516
6663,0.0488758516
6664,0.0488758516
6665,0.0488758516
6666,0.0391006832
6667,0.0488758516
6668,0.0488758516
6669,0.0391006832
6670,0.0391006832
6671,0.0391006832
6672,0.0391006832
6673,0.0391006832
6674,0.0391006832
6675,0.0293255119
6676,0.0391006832
6677,0.0293255119
6678,0.0293255119
6679,0.0391006832
6680,0.0293255119
6681,0.0293255119
6682,0.0293255119
6683,0.0293255119
6684,0.0293255119
6685,0.0293255119
6686,0.0391006832
6687,0.0391006832
6688,0.0293255119
6689,0.0293255119
6690,0.0293255119
6691,0.0293255119
6692,0.0293255119
6693,0.0293255119
6694,0.0293255119
6695,0.0293255119
6696,0.0293255119
6697,0.0391006832
6698,0.0293255119
6699,0.0293255119
6700,0.0293255119
6701,0.0293255119
6702,0.0293255119
6703,0.0293255119
6704,0.0293255119
6705,0.0293255119
6706,0.0293255119
6707,0.0293255119
6708,0.0293255119
6709,0.0293255119
6710,0.0293255119
6711,0.0293255119
6712,0.0293255119
6713,0.0293255119
6714,0.0293255119
6715,0.0293255119
6716,0.0293255119
6717,0.0293255119
6718,0.0293255119
6719,0.0391006832
6720,0.0391006832
6721,0.0391006832
6722,0.0293255119
6723,0.0293255119
6724,0.0293255119
6725,0.0293255119
6726,0.0293255119
6727,0.0293255119
