0,0.0977517032
1,0.7233626842
2,1.0166177749
3,1.1339198350
4,1.1925709247
5,1.1143695116
6,0.8993157386
7,0.7331378459
8,0.5962854385
9,0.4887585639
10,0.4007820129
11,0.3225806236
12,0.2541544437
13,0.2052785873
14,0.1661779165
15,0.1368523955
16,0.1075268864
17,0.0879765415
18,0.0684261989
19,0.0586510229
20,0.0391006832
21,0.0293255119
22,0.0293255119
23,0.0195503416
24,0.0097751703
25,0.0097751703
26,0.0000000000
27,0.0000000000
28,0.0097751703
29,0.0000000000
30,0.0000000000
31,0.0000000000
32,0.0000000000
33,0.0000000000
34,0.0000000000
35,0.0000000000
36,0.0000000000
37,0.0000000000
38,0.0000000000
39,0.0000000000
40,0.0000000000
41,0.0000000000
42,0.0000000000
43,0.0000000000
44,0.0000000000
45,0.0000000000
46,0.0000000000
47,0.0000000000
48,0.0000000000
49,0.0000000000
50,0.0000000000
51,0.0000000000
52,0.0000000000
53,0.0000000000
54,0.0000000000
55,0.0000000000
56,0.0000000000
57,0.0000000000
58,0.0000000000
59,0.0000000000
60,0.0000000000
61,0.0000000000
62,0.0000000000
63,0.0000000000
64,0.0000000000
65,0.0000000000
66,0.0000000000
67,0.0000000000
68,0.0000000000
69,0.0000000000
70,0.0000000000
71,0.0000000000
72,0.0000000000
73,0.0000000000
74,0.0000000000
75,0.0000000000
76,0.0000000000
77,0.0000000000
78,0.0000000000
79,0.0000000000
80,0.0000000000
81,0.0000000000
82,0.0000000000
83,0.0000000000
84,0.0097751703
85,0.0097751703
86,0.0097751703
87,0.0097751703
88,0.0097751703
89,0.0097751703
90,0.0097751703
91,0.0097751703
92,0.0097751703
93,0.0097751703
94,0.0097751703
95,0.0097751703
96,0.0097751703
97,0.0097751703
98,0.0097751703
99,0.0195503416
100,0.0195503416
101,0.0195503416
102,0.0293255119
103,0.0293255119
104,0.0293255119
105,0.0391006832
106,0.0391006832
107,0.0391006832
108,0.0586510229
109,0.0586510229
110,0.0586510229
111,0.0586510229
112,0.0488758516
113,0.0488758516
114,0.0488758516
115,0.0488758516
116,0.0391006832
117,0.0391006832
118,0.0391006832
119,0.0293255119
120,0.0293255119
121,0.0293255119
122,0.0293255119
123,0.0293255119
124,0.0195503416
125,0.0293255119
126,0.0293255119
127,0.0293255119
128,0.0195503416
129,0.0195503416
130,0.0195503416
131,0.0195503416
132,0.0195503416
133,0.0195503416
134,0.0097751703
135,0.0097751703
136,0.0097751703
137,0.0097751703
138,0.0097751703
139,0.0195503416
140,0.0195503416
141,0.0195503416
142,0.0293255119
143,0.0293255119
144,0.0293255119
145,0.0391006832
146,0.0586510229
147,0.0586510229
148,0.0488758516
149,0.0488758516
150,0.0488758516
151,0.0488758516
152,0.0391006832
153,0.0391006832
154,0.0293255119
155,0.0293255119
156,0.0391006832
157,0.0391006832
158,0.0293255119
159,0.0391006832
160,0.0488758516
161,0.0586510229
162,0.0586510229
163,0.0488758516
164,0.0488758516
165,0.0586510229
166,0.0586510229
167,0.0488758516
168,0.0586510229
169,0.0782013654
170,0.0879765415
171,0.0782013654
172,0.0782013654
173,0.0977517032
174,0.1075268864
175,0.1075268864
176,0.1075268864
177,0.1173020482
178,0.1564027309
179,0.1466275596
180,0.1368523955
181,0.1368523955
182,0.1368523955
183,0.1368523955
184,0.1173020482
185,0.1075268864
186,0.0879765415
187,0.0879765415
188,0.0879765415
189,0.0782013654
190,0.0879765415
191,0.0684261989
192,0.0684261989
193,0.0684261989
194,0.0684261989
195,0.0586510229
196,0.0586510229
197,0.0684261989
198,0.0684261989
199,0.0684261989
200,0.0684261989
201,0.0684261989
202,0.0684261989
203,0.0879765415
204,0.1075268864
205,0.1075268864
206,0.0977517032
207,0.0782013654
208,0.0977517032
209,0.0879765415
210,0.0782013654
211,0.0782013654
212,0.0879765415
213,0.0782013654
214,0.0782013654
215,0.1075268864
216,0.0977517032
217,0.0977517032
218,0.1075268864
219,0.0977517032
220,0.0879765415
221,0.0977517032
222,0.1270772218
223,0.1270772218
224,0.1173020482
225,0.1466275596
226,0.1759530782
227,0.1759530782
228,0.2052785873
229,0.1759530782
230,0.1661779165
231,0.1759530782
232,0.1759530782
233,0.1564027309
234,0.1368523955
235,0.1368523955
236,0.1270772218
237,0.1661779165
238,0.1466275596
239,0.1466275596
240,0.1466275596
241,0.1564027309
242,0.1661779165
243,0.1564027309
244,0.1661779165
245,0.1661779165
246,0.1466275596
247,0.1661779165
248,0.1564027309
249,0.1857282543
250,0.1857282543
251,0.1955034160
252,0.1661779165
253,0.1564027309
254,0.1564027309
255,0.1759530782
256,0.1564027309
257,0.1368523955
258,0.1564027309
259,0.1368523955
260,0.1270772218
261,0.1270772218
262,0.1270772218
263,0.1075268864
264,0.0977517032
265,0.0782013654
266,0.0684261989
267,0.0684261989
268,0.0684261989
269,0.0684261989
270,0.0684261989
271,0.0782013654
272,0.0684261989
273,0.0684261989
274,0.0684261989
275,0.0782013654
276,0.0879765415
277,0.0782013654
278,0.0782013654
279,0.0684261989
280,0.0782013654
281,0.0782013654
282,0.0879765415
283,0.0879765415
284,0.0782013654
285,0.0684261989
286,0.1075268864
287,0.0977517032
288,0.0879765415
289,0.0782013654
290,0.0977517032
291,0.0977517032
292,0.1466275596
293,0.1466275596
294,0.1368523955
295,0.1368523955
296,0.1270772218
297,0.1173020482
298,0.1270772218
299,0.1075268864
300,0.1173020482
301,0.0977517032
302,0.0879765415
303,0.0782013654
304,0.0782013654
305,0.0684261989
306,0.0684261989
307,0.0684261989
308,0.0684261989
309,0.0586510229
310,0.0586510229
311,0.0488758516
312,0.0782013654
313,0.0684261989
314,0.0586510229
315,0.0488758516
316,0.0586510229
317,0.0488758516
318,0.0488758516
319,0.0391006832
320,0.0293255119
321,0.0293255119
322,0.0195503416
323,0.0195503416
324,0.0195503416
325,0.0195503416
326,0.0293255119
327,0.0586510229
328,0.0684261989
329,0.1173020482
330,0.1466275596
331,0.2541544437
332,0.2639296054
333,0.2150537729
334,0.1955034160
335,0.2346040964
336,0.2932551193
337,0.3323558330
338,0.3030303001
339,0.3030303001
340,0.2932551193
341,0.3323558330
342,0.3225806236
343,0.3323558330
344,0.3616813421
345,0.4301075458
346,0.4203323364
347,0.4203323364
348,0.4105571746
349,0.4594330310
350,0.4398827075
351,0.4105571746
352,0.4007820129
353,0.4203323364
354,0.4692081928
355,0.5474095821
356,0.5474095821
357,0.5180840492
358,0.6647116661
359,0.6451612472
360,0.7038123130
361,0.6549364089
362,0.5962854385
363,0.5571847438
364,0.5474095821
365,0.5669599056
366,0.5278592109
367,0.4985337257
368,0.4692081928
369,0.5278592109
370,0.5474095821
371,0.5376344203
372,0.5083088874
373,0.4692081928
374,0.4496578693
375,0.4496578693
376,0.4105571746
377,0.3812316703
378,0.3910068321
379,0.3714565038
380,0.3421309947
381,0.3323558330
382,0.3128054618
383,0.2639296054
384,0.2346040964
385,0.2052785873
386,0.2052785873
387,0.2150537729
388,0.2248289346
389,0.2150537729
390,0.2346040964
391,0.3225806236
392,0.2737047910
393,0.2639296054
394,0.2737047910
395,0.2346040964
396,0.2443792819
397,0.2737047910
398,0.3030303001
399,0.3519061565
400,0.3323558330
401,0.3225806236
402,0.2932551193
403,0.2932551193
404,0.2932551193
405,0.2639296054
406,0.2639296054
407,0.2443792819
408,0.2346040964
409,0.2346040964
410,0.2150537729
411,0.2248289346
412,0.2248289346
413,0.2248289346
414,0.2541544437
415,0.2639296054
416,0.2346040964
417,0.2443792819
418,0.2150537729
419,0.2052785873
420,0.2346040964
421,0.2248289346
422,0.2052785873
423,0.2443792819
424,0.2834799575
425,0.2541544437
426,0.2443792819
427,0.3225806236
428,0.3128054618
429,0.3128054618
430,0.3616813421
431,0.3812316703
432,0.3812316703
433,0.3519061565
434,0.3714565038
435,0.3812316703
436,0.4301075458
437,0.4789833545
438,0.5180840492
439,0.5180840492
440,0.5767350673
441,0.5571847438
442,0.5083088874
443,0.4985337257
444,0.4789833545
445,0.4594330310
446,0.4398827075
447,0.4105571746
448,0.4007820129
449,0.3812316703
450,0.3323558330
451,0.3030303001
452,0.2639296054
453,0.2346040964
454,0.2248289346
455,0.2150537729
456,0.1955034160
457,0.1857282543
458,0.1955034160
459,0.2248289346
460,0.2150537729
461,0.2248289346
462,0.1857282543
463,0.2150537729
464,0.2443792819
465,0.2443792819
466,0.2541544437
467,0.2541544437
468,0.3030303001
469,0.3030303001
470,0.3616813421
471,0.3421309947
472,0.3323558330
473,0.3812316703
474,0.3812316703
475,0.3714565038
476,0.3714565038
477,0.4692081928
478,0.4301075458
479,0.4496578693
480,0.5865102291
481,0.6744868278
482,0.6647116661
483,0.6940371513
484,0.7233626842
485,0.7624633312
486,0.8015640258
487,0.7429130077
488,0.7820136547
489,0.7429130077
490,0.7526881694
491,0.7233626842
492,0.7038123130
493,0.6744868278
494,0.7233626842
495,0.6158357620
496,0.6060606002
497,0.5376344203
498,0.5180840492
499,0.4594330310
500,0.4887585639
501,0.4887585639
502,0.4301075458
503,0.4105571746
504,0.4105571746
505,0.4007820129
506,0.4203323364
507,0.3812316703
508,0.4203323364
509,0.4105571746
510,0.3616813421
511,0.3323558330
512,0.3030303001
513,0.2932551193
514,0.2541544437
515,0.2248289346
516,0.2052785873
517,0.1955034160
518,0.1857282543
519,0.1759530782
520,0.2150537729
521,0.2052785873
522,0.2248289346
523,0.2052785873
524,0.1955034160
525,0.1759530782
526,0.1955034160
527,0.1955034160
528,0.2052785873
529,0.1955034160
530,0.1857282543
531,0.1955034160
532,0.2052785873
533,0.2150537729
534,0.2150537729
535,0.2150537729
536,0.1857282543
537,0.2150537729
538,0.2248289346
539,0.2248289346
540,0.2150537729
541,0.2150537729
542,0.3616813421
543,0.3421309947
544,0.3128054618
545,0.3128054618
546,0.3714565038
547,0.3323558330
548,0.3030303001
549,0.3030303001
550,0.3519061565
551,0.3421309947
552,0.3225806236
553,0.3225806236
554,0.3128054618
555,0.3128054618
556,0.2932551193
557,0.3030303001
558,0.3030303001
559,0.3323558330
560,0.2932551193
561,0.2932551193
562,0.3128054618
563,0.3030303001
564,0.2932551193
565,0.2932551193
566,0.3030303001
567,0.2737047910
568,0.2541544437
569,0.2346040964
570,0.2150537729
571,0.2443792819
572,0.2346040964
573,0.2052785873
574,0.2052785873
575,0.2052785873
576,0.1955034160
577,0.1955034160
578,0.2052785873
579,0.1759530782
580,0.2052785873
581,0.2150537729
582,0.2346040964
583,0.2443792819
584,0.2248289346
585,0.2541544437
586,0.3225806236
587,0.3323558330
588,0.3225806236
589,0.3421309947
590,0.3030303001
591,0.3128054618
592,0.3128054618
593,0.3030303001
594,0.3128054618
595,0.3421309947
596,0.4007820129
597,0.3714565038
598,0.3714565038
599,0.3714565038
600,0.3714565038
601,0.3714565038
602,0.4301075458
603,0.4496578693
604,0.5376344203
605,0.6158357620
606,0.6060606002
607,0.6256109237
608,0.6353860855
609,0.5962854385
610,0.5767350673
611,0.5474095821
612,0.5180840492
613,0.4887585639
614,0.4692081928
615,0.4887585639
616,0.4887585639
617,0.4398827075
618,0.4692081928
619,0.4887585639
620,0.5083088874
621,0.4887585639
622,0.4789833545
623,0.4692081928
624,0.4007820129
625,0.4398827075
626,0.4594330310
627,0.4301075458
628,0.3910068321
629,0.3323558330
630,0.3128054618
631,0.3030303001
632,0.2639296054
633,0.2248289346
634,0.1857282543
635,0.1661779165
636,0.1466275596
637,0.1466275596
638,0.1759530782
639,0.1661779165
640,0.1955034160
641,0.2248289346
642,0.2150537729
643,0.1955034160
644,0.1661779165
645,0.1857282543
646,0.1955034160
647,0.1955034160
648,0.2248289346
649,0.2443792819
650,0.2248289346
651,0.2346040964
652,0.2248289346
653,0.2150537729
654,0.1857282543
655,0.2052785873
656,0.1759530782
657,0.1759530782
658,0.1661779165
659,0.1661779165
660,0.1466275596
661,0.1564027309
662,0.1857282543
663,0.1955034160
664,0.2052785873
665,0.2052785873
666,0.2248289346
667,0.2834799575
668,0.2932551193
669,0.2639296054
670,0.2834799575
671,0.2834799575
672,0.2541544437
673,0.2737047910
674,0.2834799575
675,0.2639296054
676,0.2639296054
677,0.2541544437
678,0.2443792819
679,0.2834799575
680,0.2639296054
681,0.2932551193
682,0.3030303001
683,0.3323558330
684,0.3421309947
685,0.3323558330
686,0.2932551193
687,0.2639296054
688,0.2932551193
689,0.2737047910
690,0.2541544437
691,0.2443792819
692,0.2248289346
693,0.2737047910
694,0.3030303001
695,0.2834799575
696,0.3030303001
697,0.3421309947
698,0.3225806236
699,0.3225806236
700,0.3714565038
701,0.3616813421
702,0.3323558330
703,0.3421309947
704,0.3323558330
705,0.2932551193
706,0.2932551193
707,0.2737047910
708,0.2639296054
709,0.2248289346
710,0.2541544437
711,0.2346040964
712,0.1955034160
713,0.2052785873
714,0.2248289346
715,0.2346040964
716,0.2541544437
717,0.2737047910
718,0.2834799575
719,0.3128054618
720,0.2932551193
721,0.3225806236
722,0.3812316703
723,0.3421309947
724,0.3323558330
725,0.3519061565
726,0.3812316703
727,0.4007820129
728,0.4007820129
729,0.3519061565
730,0.3616813421
731,0.4007820129
732,0.3812316703
733,0.3812316703
734,0.3714565038
735,0.4496578693
736,0.4301075458
737,0.4789833545
738,0.5571847438
739,0.5474095821
740,0.5474095821
741,0.6451612472
742,0.7038123130
743,0.6744868278
744,0.6940371513
745,0.6744868278
746,0.6158357620
747,0.6158357620
748,0.5865102291
749,0.5865102291
750,0.6256109237
751,0.6549364089
752,0.5865102291
753,0.5571847438
754,0.5474095821
755,0.5278592109
756,0.4985337257
757,0.5278592109
758,0.4789833545
759,0.4887585639
760,0.4105571746
761,0.3616813421
762,0.3421309947
763,0.3128054618
764,0.2639296054
765,0.2346040964
766,0.2443792819
767,0.2052785873
768,0.1661779165
769,0.1466275596
770,0.1368523955
771,0.1270772218
772,0.1075268864
773,0.1075268864
774,0.1173020482
775,0.1075268864
776,0.1075268864
777,0.1368523955
778,0.1466275596
779,0.1564027309
780,0.1466275596
781,0.1564027309
782,0.1564027309
783,0.1955034160
784,0.1955034160
785,0.1955034160
786,0.2346040964
787,0.2150537729
788,0.1857282543
789,0.1955034160
790,0.2248289346
791,0.2346040964
792,0.2541544437
793,0.2443792819
794,0.2346040964
795,0.2346040964
796,0.2541544437
797,0.2443792819
798,0.2541544437
799,0.2346040964
800,0.2443792819
801,0.2737047910
802,0.2737047910
803,0.2834799575
804,0.2737047910
805,0.2639296054
806,0.3030303001
807,0.2834799575
808,0.2639296054
809,0.2737047910
810,0.2932551193
811,0.2737047910
812,0.2639296054
813,0.3030303001
814,0.2737047910
815,0.2834799575
816,0.3030303001
817,0.2834799575
818,0.3030303001
819,0.2932551193
820,0.3519061565
821,0.3421309947
822,0.3225806236
823,0.2932551193
824,0.2639296054
825,0.3128054618
826,0.3128054618
827,0.3030303001
828,0.3323558330
829,0.3225806236
830,0.3030303001
831,0.3225806236
832,0.3030303001
833,0.2932551193
834,0.2834799575
835,0.3225806236
836,0.3030303001
837,0.3030303001
838,0.3323558330
839,0.2932551193
840,0.2737047910
841,0.2541544437
842,0.2346040964
843,0.2248289346
844,0.2150537729
845,0.1955034160
846,0.1857282543
847,0.1857282543
848,0.1857282543
849,0.1759530782
850,0.1759530782
851,0.1857282543
852,0.2150537729
853,0.2346040964
854,0.2541544437
855,0.2443792819
856,0.2639296054
857,0.3128054618
858,0.3225806236
859,0.3030303001
860,0.3128054618
861,0.3128054618
862,0.4105571746
863,0.4398827075
864,0.4398827075
865,0.4594330310
866,0.5180840492
867,0.5376344203
868,0.5767350673
869,0.5767350673
870,0.5865102291
871,0.6158357620
872,0.6940371513
873,0.7233626842
874,0.7233626842
875,0.6842619895
876,0.7331378459
877,0.7233626842
878,0.6842619895
879,0.6647116661
880,0.6940371513
881,0.7429130077
882,0.6549364089
883,0.6353860855
884,0.6256109237
885,0.6549364089
886,0.6549364089
887,0.5669599056
888,0.5278592109
889,0.5278592109
890,0.4985337257
891,0.4398827075
892,0.4007820129
893,0.3910068321
894,0.3519061565
895,0.3323558330
896,0.2932551193
897,0.2443792819
898,0.1955034160
899,0.1661779165
900,0.1564027309
901,0.1368523955
902,0.1075268864
903,0.0879765415
904,0.0782013654
905,0.0879765415
906,0.1075268864
907,0.1270772218
908,0.1759530782
909,0.2248289346
910,0.2443792819
911,0.2639296054
912,0.2639296054
913,0.3030303001
914,0.3128054618
915,0.3225806236
916,0.2834799575
917,0.2834799575
918,0.3030303001
919,0.2834799575
920,0.2541544437
921,0.2541544437
922,0.2346040964
923,0.2346040964
924,0.2248289346
925,0.2150537729
926,0.2150537729
927,0.2248289346
928,0.2248289346
929,0.2443792819
930,0.2248289346
931,0.2248289346
932,0.2443792819
933,0.2639296054
934,0.2443792819
935,0.2346040964
936,0.2248289346
937,0.2443792819
938,0.2541544437
939,0.2443792819
940,0.2541544437
941,0.2443792819
942,0.2639296054
943,0.2541544437
944,0.2639296054
945,0.2639296054
946,0.2541544437
947,0.2541544437
948,0.2639296054
949,0.3128054618
950,0.4007820129
951,0.4203323364
952,0.4007820129
953,0.4007820129
954,0.4007820129
955,0.4203323364
956,0.4105571746
957,0.4692081928
958,0.4985337257
959,0.4692081928
960,0.4887585639
961,0.4496578693
962,0.4203323364
963,0.4594330310
964,0.4398827075
965,0.3910068321
966,0.3616813421
967,0.3812316703
968,0.3323558330
969,0.3128054618
970,0.2737047910
971,0.2443792819
972,0.2541544437
973,0.2639296054
974,0.2541544437
975,0.2150537729
976,0.2150537729
977,0.2052785873
978,0.2052785873
979,0.2248289346
980,0.2639296054
981,0.2639296054
982,0.2541544437
983,0.2541544437
984,0.2737047910
985,0.3225806236
986,0.3030303001
987,0.2932551193
988,0.3421309947
989,0.3616813421
990,0.3910068321
991,0.4692081928
992,0.4887585639
993,0.4594330310
994,0.4203323364
995,0.3812316703
996,0.3616813421
997,0.3616813421
998,0.4301075458
999,0.4887585639
1000,0.5669599056
1001,0.7331378459
1002,0.7526881694
1003,0.6842619895
1004,0.6744868278
1005,0.6744868278
1006,0.6940371513
1007,0.7429130077
1008,0.7038123130
1009,0.7624633312
1010,0.6744868278
1011,0.6256109237
1012,0.5669599056
1013,0.5474095821
1014,0.5669599056
1015,0.5571847438
1016,0.5083088874
1017,0.4496578693
1018,0.3910068321
1019,0.3714565038
1020,0.3714565038
1021,0.4203323364
1022,0.4203323364
1023,0.3421309947
1024,0.2834799575
1025,0.2346040964
1026,0.2052785873
1027,0.1564027309
1028,0.1368523955
1029,0.1466275596
1030,0.2248289346
1031,0.2443792819
1032,0.2248289346
1033,0.2639296054
1034,0.2150537729
1035,0.1759530782
1036,0.1466275596
1037,0.1270772218
1038,0.1075268864
1039,0.0977517032
1040,0.1173020482
1041,0.1759530782
1042,0.2248289346
1043,0.3030303001
1044,0.2737047910
1045,0.2932551193
1046,0.2932551193
1047,0.2737047910
1048,0.2932551193
1049,0.2932551193
1050,0.2932551193
1051,0.2737047910
1052,0.2541544437
1053,0.2541544437
1054,0.2834799575
1055,0.2639296054
1056,0.2541544437
1057,0.2443792819
1058,0.2248289346
1059,0.2150537729
1060,0.2248289346
1061,0.2248289346
1062,0.2248289346
1063,0.2541544437
1064,0.2443792819
1065,0.2150537729
1066,0.2248289346
1067,0.2834799575
1068,0.3128054618
1069,0.2932551193
1070,0.2834799575
1071,0.2443792819
1072,0.2346040964
1073,0.2639296054
1074,0.2443792819
1075,0.2248289346
1076,0.1955034160
1077,0.2052785873
1078,0.1955034160
1079,0.2248289346
1080,0.2150537729
1081,0.2052785873
1082,0.2346040964
1083,0.2150537729
1084,0.2052785873
1085,0.2052785873
1086,0.1955034160
1087,0.1759530782
1088,0.1759530782
1089,0.1955034160
1090,0.1661779165
1091,0.1466275596
1092,0.1564027309
1093,0.1466275596
1094,0.1368523955
1095,0.1466275596
1096,0.1564027309
1097,0.1368523955
1098,0.1270772218
1099,0.1173020482
1100,0.1368523955
1101,0.1466275596
1102,0.1466275596
1103,0.1270772218
1104,0.1270772218
1105,0.1466275596
1106,0.1368523955
1107,0.1368523955
1108,0.1661779165
1109,0.2150537729
1110,0.2052785873
1111,0.1955034160
1112,0.1857282543
1113,0.1955034160
1114,0.2150537729
1115,0.2639296054
1116,0.2932551193
1117,0.3323558330
1118,0.3128054618
1119,0.3421309947
1120,0.4007820129
1121,0.3910068321
1122,0.3616813421
1123,0.4496578693
1124,0.4398827075
1125,0.5376344203
1126,0.6744868278
1127,0.7624633312
1128,0.8308895111
1129,0.8015640258
1130,0.9384163856
1131,0.9775171279
1132,0.9775171279
1133,0.9872922897
1134,1.0948191833
1135,1.0166177749
1136,1.0166177749
1137,0.8993157386
1138,0.8895405769
1139,0.8699902534
1140,0.8113391876
1141,0.7722384929
1142,0.6940371513
1143,0.8406646728
1144,0.8113391876
1145,0.6940371513
1146,0.6353860855
1147,0.6744868278
1148,0.5767350673
1149,0.5278592109
1150,0.5278592109
1151,0.4496578693
1152,0.3714565038
1153,0.3030303001
1154,0.2443792819
1155,0.1955034160
1156,0.1661779165
1157,0.1466275596
1158,0.1270772218
1159,0.1173020482
1160,0.2639296054
1161,0.2443792819
1162,0.2443792819
1163,0.1955034160
1164,0.1661779165
1165,0.1368523955
1166,0.1075268864
1167,0.0879765415
1168,0.0782013654
1169,0.0782013654
1170,0.0879765415
1171,0.0977517032
1172,0.1173020482
1173,0.1564027309
1174,0.2639296054
1175,0.2834799575
1176,0.2737047910
1177,0.2737047910
1178,0.2541544437
1179,0.3421309947
1180,0.3225806236
1181,0.3128054618
1182,0.3030303001
1183,0.3225806236
1184,0.3225806236
1185,0.2932551193
1186,0.2932551193
1187,0.3616813421
1188,0.3225806236
1189,0.3323558330
1190,0.2932551193
1191,0.2639296054
1192,0.2639296054
1193,0.2541544437
1194,0.2932551193
1195,0.2834799575
1196,0.3030303001
1197,0.3030303001
1198,0.2639296054
1199,0.2737047910
1200,0.2639296054
1201,0.3128054618
1202,0.2932551193
1203,0.3323558330
1204,0.3421309947
1205,0.3616813421
1206,0.3519061565
1207,0.3030303001
1208,0.2834799575
1209,0.2639296054
1210,0.2541544437
1211,0.2346040964
1212,0.2248289346
1213,0.2150537729
1214,0.2150537729
1215,0.2248289346
1216,0.2346040964
1217,0.2248289346
1218,0.2052785873
1219,0.2052785873
1220,0.1857282543
1221,0.1661779165
1222,0.1759530782
1223,0.1955034160
1224,0.1857282543
1225,0.1759530782
1226,0.1661779165
1227,0.1564027309
1228,0.1759530782
1229,0.1759530782
1230,0.1759530782
1231,0.1564027309
1232,0.1564027309
1233,0.1466275596
1234,0.1661779165
1235,0.1466275596
1236,0.1564027309
1237,0.1759530782
1238,0.1955034160
1239,0.2052785873
1240,0.2541544437
1241,0.2639296054
1242,0.3030303001
1243,0.3421309947
1244,0.4301075458
1245,0.4301075458
1246,0.5376344203
1247,0.4692081928
1248,0.4496578693
1249,0.4594330310
1250,0.4985337257
1251,0.5571847438
1252,0.5767350673
1253,0.6353860855
1254,0.6744868278
1255,0.6158357620
1256,0.6353860855
1257,0.7722384929
1258,0.7526881694
1259,0.6940371513
1260,0.7331378459
1261,0.8113391876
1262,0.7722384929
1263,0.7820136547
1264,0.7526881694
1265,0.7429130077
1266,0.6842619895
1267,0.5962854385
1268,0.6158357620
1269,0.5571847438
1270,0.5376344203
1271,0.4887585639
1272,0.4398827075
1273,0.3812316703
1274,0.3225806236
1275,0.2834799575
1276,0.2248289346
1277,0.1857282543
1278,0.1564027309
1279,0.1368523955
1280,0.1173020482
1281,0.1857282543
1282,0.2541544437
1283,0.2248289346
1284,0.1759530782
1285,0.1564027309
1286,0.1270772218
1287,0.1075268864
1288,0.0879765415
1289,0.0782013654
1290,0.0684261989
1291,0.0684261989
1292,0.1075268864
1293,0.1075268864
1294,0.1270772218
1295,0.1661779165
1296,0.1857282543
1297,0.1759530782
1298,0.1857282543
1299,0.2052785873
1300,0.2248289346
1301,0.2248289346
1302,0.2052785873
1303,0.1955034160
1304,0.1759530782
1305,0.1759530782
1306,0.1955034160
1307,0.2248289346
1308,0.2541544437
1309,0.2541544437
1310,0.2346040964
1311,0.2248289346
1312,0.2346040964
1313,0.2052785873
1314,0.1857282543
1315,0.2248289346
1316,0.2052785873
1317,0.2150537729
1318,0.1955034160
1319,0.2248289346
1320,0.2150537729
1321,0.2248289346
1322,0.2052785873
1323,0.2443792819
1324,0.2932551193
1325,0.2834799575
1326,0.2737047910
1327,0.2443792819
1328,0.2248289346
1329,0.2639296054
1330,0.2834799575
1331,0.2639296054
1332,0.2346040964
1333,0.2052785873
1334,0.2150537729
1335,0.2541544437
1336,0.2737047910
1337,0.2639296054
1338,0.2639296054
1339,0.2834799575
1340,0.2932551193
1341,0.2834799575
1342,0.2834799575
1343,0.2541544437
1344,0.2248289346
1345,0.2150537729
1346,0.2052785873
1347,0.1857282543
1348,0.1759530782
1349,0.1759530782
1350,0.1564027309
1351,0.1661779165
1352,0.1661779165
1353,0.1661779165
1354,0.1564027309
1355,0.1661779165
1356,0.1759530782
1357,0.1857282543
1358,0.1661779165
1359,0.1466275596
1360,0.1759530782
1361,0.1857282543
1362,0.1955034160
1363,0.2150537729
1364,0.2150537729
1365,0.2932551193
1366,0.3030303001
1367,0.3714565038
1368,0.3616813421
1369,0.3714565038
1370,0.3225806236
1371,0.3812316703
1372,0.3812316703
1373,0.4301075458
1374,0.4301075458
1375,0.4789833545
1376,0.5083088874
1377,0.4985337257
1378,0.6158357620
1379,0.6256109237
1380,0.7038123130
1381,0.6549364089
1382,0.6256109237
1383,0.7038123130
1384,0.7624633312
1385,0.7135874748
1386,0.7820136547
1387,0.7722384929
1388,0.7331378459
1389,0.7722384929
1390,0.7135874748
1391,0.6256109237
1392,0.6060606002
1393,0.6060606002
1394,0.5767350673
1395,0.5278592109
1396,0.4985337257
1397,0.4398827075
1398,0.3910068321
1399,0.3421309947
1400,0.2834799575
1401,0.2248289346
1402,0.1857282543
1403,0.1466275596
1404,0.1270772218
1405,0.1075268864
1406,0.0977517032
1407,0.1466275596
1408,0.2346040964
1409,0.2150537729
1410,0.1857282543
1411,0.1661779165
1412,0.1368523955
1413,0.1173020482
1414,0.0879765415
1415,0.0782013654
1416,0.0586510229
1417,0.0488758516
1418,0.0586510229
1419,0.0782013654
1420,0.0977517032
1421,0.1173020482
1422,0.1466275596
1423,0.2346040964
1424,0.2248289346
1425,0.3128054618
1426,0.3225806236
1427,0.3030303001
1428,0.2932551193
1429,0.3225806236
1430,0.3421309947
1431,0.3616813421
1432,0.3519061565
1433,0.3128054618
1434,0.2932551193
1435,0.2541544437
1436,0.2541544437
1437,0.3030303001
1438,0.2737047910
1439,0.2834799575
1440,0.2932551193
1441,0.2932551193
1442,0.3421309947
1443,0.3030303001
1444,0.2932551193
1445,0.2932551193
1446,0.2737047910
1447,0.2541544437
1448,0.3128054618
1449,0.3421309947
1450,0.3421309947
1451,0.3323558330
1452,0.3225806236
1453,0.4007820129
1454,0.4105571746
1455,0.4398827075
1456,0.3910068321
1457,0.3421309947
1458,0.3030303001
1459,0.2932551193
1460,0.3128054618
1461,0.3323558330
1462,0.2932551193
1463,0.2737047910
1464,0.2639296054
1465,0.2541544437
1466,0.2834799575
1467,0.2932551193
1468,0.2932551193
1469,0.3030303001
1470,0.2737047910
1471,0.2248289346
1472,0.2052785873
1473,0.2052785873
1474,0.1759530782
1475,0.1759530782
1476,0.1661779165
1477,0.1759530782
1478,0.1759530782
1479,0.2150537729
1480,0.2052785873
1481,0.1955034160
1482,0.1955034160
1483,0.2150537729
1484,0.2248289346
1485,0.2346040964
1486,0.2834799575
1487,0.3030303001
1488,0.2834799575
1489,0.2541544437
1490,0.2346040964
1491,0.2639296054
1492,0.2834799575
1493,0.2834799575
1494,0.3030303001
1495,0.3519061565
1496,0.3910068321
1497,0.4301075458
1498,0.4398827075
1499,0.4496578693
1500,0.4398827075
1501,0.5767350673
1502,0.5571847438
1503,0.6060606002
1504,0.6744868278
1505,0.6940371513
1506,0.6549364089
1507,0.6256109237
1508,0.6256109237
1509,0.5376344203
1510,0.5474095821
1511,0.6353860855
1512,0.6256109237
1513,0.5474095821
1514,0.5767350673
1515,0.5767350673
1516,0.5083088874
1517,0.4887585639
1518,0.5083088874
1519,0.4789833545
1520,0.4398827075
1521,0.3910068321
1522,0.3421309947
1523,0.3225806236
1524,0.2737047910
1525,0.2248289346
1526,0.1857282543
1527,0.1466275596
1528,0.1270772218
1529,0.1075268864
1530,0.0977517032
1531,0.0879765415
1532,0.1857282543
1533,0.1759530782
1534,0.1564027309
1535,0.1368523955
1536,0.1075268864
1537,0.0977517032
1538,0.0782013654
1539,0.0586510229
1540,0.0488758516
1541,0.0488758516
1542,0.0391006832
1543,0.0586510229
1544,0.1466275596
1545,0.1368523955
1546,0.1466275596
1547,0.1857282543
1548,0.2443792819
1549,0.2541544437
1550,0.2834799575
1551,0.2737047910
1552,0.2639296054
1553,0.2932551193
1554,0.2834799575
1555,0.2737047910
1556,0.2932551193
1557,0.3128054618
1558,0.2932551193
1559,0.2541544437
1560,0.2639296054
1561,0.2443792819
1562,0.2443792819
1563,0.2150537729
1564,0.2052785873
1565,0.2052785873
1566,0.2052785873
1567,0.2248289346
1568,0.2248289346
1569,0.2346040964
1570,0.2150537729
1571,0.2150537729
1572,0.2737047910
1573,0.3128054618
1574,0.3030303001
1575,0.3030303001
1576,0.3128054618
1577,0.2834799575
1578,0.3030303001
1579,0.2834799575
1580,0.2443792819
1581,0.2443792819
1582,0.2443792819
1583,0.2639296054
1584,0.2639296054
1585,0.2541544437
1586,0.2346040964
1587,0.2248289346
1588,0.2150537729
1589,0.2150537729
1590,0.1955034160
1591,0.2150537729
1592,0.2052785873
1593,0.1955034160
1594,0.1857282543
1595,0.1857282543
1596,0.1661779165
1597,0.1564027309
1598,0.1661779165
1599,0.1955034160
1600,0.2052785873
1601,0.1955034160
1602,0.1955034160
1603,0.1857282543
1604,0.2052785873
1605,0.2248289346
1606,0.2052785873
1607,0.2052785873
1608,0.2248289346
1609,0.2443792819
1610,0.3030303001
1611,0.2639296054
1612,0.2932551193
1613,0.3323558330
1614,0.2932551193
1615,0.3030303001
1616,0.2834799575
1617,0.2737047910
1618,0.3714565038
1619,0.3519061565
1620,0.3225806236
1621,0.3714565038
1622,0.3812316703
1623,0.4789833545
1624,0.4887585639
1625,0.4496578693
1626,0.4496578693
1627,0.4594330310
1628,0.6842619895
1629,0.7331378459
1630,0.8895405769
1631,0.8797654151
1632,0.9775171279
1633,1.0850440216
1634,1.1436949968
1635,1.1143695116
1636,1.2023460865
1637,1.2609970569
1638,1.2805473804
1639,1.2121212482
1640,1.1339198350
1641,1.0166177749
1642,0.8993157386
1643,0.8113391876
1644,0.8308895111
1645,0.8602150917
1646,0.8895405769
1647,0.8993157386
1648,0.9677418708
1649,0.9188660621
1650,0.8602150917
1651,0.7917888641
1652,0.7429130077
1653,0.7917888641
1654,0.6647116661
1655,0.5571847438
1656,0.4594330310
1657,0.3714565038
1658,0.2932551193
1659,0.2443792819
1660,0.1955034160
1661,0.1661779165
1662,0.1564027309
1663,0.1759530782
1664,0.2346040964
1665,0.2052785873
1666,0.1759530782
1667,0.1857282543
1668,0.2150537729
1669,0.2834799575
1670,0.2248289346
1671,0.1857282543
1672,0.1466275596
1673,0.1270772218
1674,0.1075268864
1675,0.1075268864
1676,0.1173020482
1677,0.1857282543
1678,0.1759530782
1679,0.1661779165
1680,0.1564027309
1681,0.1857282543
1682,0.2052785873
1683,0.1955034160
1684,0.2150537729
1685,0.2541544437
1686,0.2541544437
1687,0.3323558330
1688,0.3616813421
1689,0.3616813421
1690,0.3421309947
1691,0.3519061565
1692,0.3323558330
1693,0.3323558330
1694,0.3030303001
1695,0.2834799575
1696,0.2639296054
1697,0.2639296054
1698,0.2541544437
1699,0.2248289346
1700,0.2248289346
1701,0.2443792819
1702,0.2639296054
1703,0.2639296054
1704,0.2443792819
1705,0.3030303001
1706,0.3519061565
1707,0.3421309947
1708,0.3030303001
1709,0.3030303001
1710,0.3323558330
1711,0.3519061565
1712,0.3323558330
1713,0.3714565038
1714,0.3616813421
1715,0.3225806236
1716,0.3030303001
1717,0.2639296054
1718,0.2834799575
1719,0.2737047910
1720,0.2639296054
1721,0.3030303001
1722,0.2737047910
1723,0.2443792819
1724,0.2443792819
1725,0.2443792819
1726,0.2248289346
1727,0.2150537729
1728,0.2052785873
1729,0.1955034160
1730,0.1955034160
1731,0.1955034160
1732,0.1857282543
1733,0.1955034160
1734,0.1759530782
1735,0.1466275596
1736,0.1368523955
1737,0.1466275596
1738,0.1661779165
1739,0.1564027309
1740,0.2052785873
1741,0.2150537729
1742,0.2639296054
1743,0.3128054618
1744,0.2737047910
1745,0.3714565038
1746,0.3714565038
1747,0.3616813421
1748,0.4105571746
1749,0.4789833545
1750,0.4887585639
1751,0.5083088874
1752,0.6353860855
1753,0.6353860855
1754,0.6353860855
1755,0.5767350673
1756,0.5083088874
1757,0.5376344203
1758,0.6060606002
1759,0.6549364089
1760,0.6744868278
1761,0.7135874748
1762,0.7429130077
1763,0.8504399299
1764,0.8308895111
1765,0.7917888641
1766,0.9970674514
1767,1.0068426132
1768,0.8993157386
1769,0.9384163856
1770,0.9775171279
1771,0.9286412239
1772,0.8699902534
1773,0.7722384929
1774,0.7135874748
1775,0.6256109237
1776,0.5376344203
1777,0.5669599056
1778,0.5278592109
1779,0.4594330310
1780,0.4105571746
1781,0.3323558330
1782,0.2639296054
1783,0.2248289346
1784,0.1759530782
1785,0.1466275596
1786,0.1270772218
1787,0.1075268864
1788,0.0977517032
1789,0.0879765415
1790,0.1173020482
1791,0.1564027309
1792,0.1368523955
1793,0.1173020482
1794,0.1075268864
1795,0.0879765415
1796,0.0684261989
1797,0.0586510229
1798,0.0586510229
1799,0.0488758516
1800,0.0391006832
1801,0.0391006832
1802,0.0391006832
1803,0.0586510229
1804,0.0586510229
1805,0.0879765415
1806,0.1466275596
1807,0.1857282543
1808,0.2541544437
1809,0.2639296054
1810,0.2443792819
1811,0.2737047910
1812,0.3030303001
1813,0.2737047910
1814,0.2834799575
1815,0.2443792819
1816,0.2541544437
1817,0.2834799575
1818,0.2443792819
1819,0.2150537729
1820,0.2248289346
1821,0.2248289346
1822,0.2737047910
1823,0.3030303001
1824,0.3225806236
1825,0.3128054618
1826,0.2834799575
1827,0.2639296054
1828,0.3030303001
1829,0.3030303001
1830,0.2737047910
1831,0.2737047910
1832,0.3323558330
1833,0.3225806236
1834,0.2932551193
1835,0.3323558330
1836,0.3030303001
1837,0.2639296054
1838,0.2639296054
1839,0.2248289346
1840,0.2248289346
1841,0.2052785873
1842,0.1759530782
1843,0.1661779165
1844,0.1759530782
1845,0.2052785873
1846,0.2052785873
1847,0.2443792819
1848,0.2150537729
1849,0.2346040964
1850,0.2541544437
1851,0.2541544437
1852,0.2443792819
1853,0.2248289346
1854,0.2150537729
1855,0.2052785873
1856,0.1955034160
1857,0.2052785873
1858,0.1955034160
1859,0.1759530782
1860,0.1661779165
1861,0.1661779165
1862,0.1564027309
1863,0.2150537729
1864,0.2932551193
1865,0.2737047910
1866,0.2541544437
1867,0.3128054618
1868,0.3519061565
1869,0.3225806236
1870,0.3128054618
1871,0.2834799575
1872,0.3225806236
1873,0.3030303001
1874,0.3812316703
1875,0.3812316703
1876,0.3616813421
1877,0.4789833545
1878,0.4496578693
1879,0.5180840492
1880,0.5669599056
1881,0.5865102291
1882,0.5767350673
1883,0.7038123130
1884,0.6549364089
1885,0.6744868278
1886,0.7917888641
1887,0.8895405769
1888,1.2023460865
1889,1.2414467334
1890,1.3294233083
1891,1.2414467334
1892,1.1925709247
1893,1.1925709247
1894,1.3098728656
1895,1.2218964099
1896,1.2414467334
1897,1.0459432601
1898,0.9090909004
1899,0.8895405769
1900,0.8895405769
1901,0.7820136547
1902,0.7135874748
1903,0.6549364089
1904,0.5376344203
1905,0.4496578693
1906,0.3519061565
1907,0.2834799575
1908,0.2248289346
1909,0.1857282543
1910,0.1564027309
1911,0.1368523955
1912,0.1759530782
1913,0.2248289346
1914,0.1955034160
1915,0.1857282543
1916,0.2248289346
1917,0.2443792819
1918,0.2150537729
1919,0.1759530782
1920,0.1368523955
1921,0.1173020482
1922,0.0879765415
1923,0.0782013654
1924,0.0879765415
1925,0.0879765415
1926,0.0977517032
1927,0.1759530782
1928,0.1759530782
1929,0.1955034160
1930,0.2150537729
1931,0.2248289346
1932,0.2248289346
1933,0.2639296054
1934,0.2834799575
1935,0.3128054618
1936,0.3421309947
1937,0.3323558330
1938,0.3519061565
1939,0.3714565038
1940,0.4105571746
1941,0.4398827075
1942,0.4105571746
1943,0.4301075458
1944,0.4398827075
1945,0.4301075458
1946,0.4203323364
1947,0.4105571746
1948,0.3812316703
1949,0.3519061565
1950,0.3519061565
1951,0.3421309947
1952,0.3030303001
1953,0.3030303001
1954,0.2932551193
1955,0.3225806236
1956,0.3616813421
1957,0.3421309947
1958,0.3323558330
1959,0.3323558330
1960,0.2932551193
1961,0.2932551193
1962,0.2737047910
1963,0.2541544437
1964,0.2346040964
1965,0.2052785873
1966,0.2150537729
1967,0.2346040964
1968,0.2248289346
1969,0.2541544437
1970,0.2443792819
1971,0.2346040964
1972,0.2150537729
1973,0.2150537729
1974,0.1955034160
1975,0.1661779165
1976,0.1466275596
1977,0.1661779165
1978,0.1564027309
1979,0.2248289346
1980,0.2346040964
1981,0.2248289346
1982,0.2150537729
1983,0.2150537729
1984,0.2150537729
1985,0.2248289346
1986,0.2541544437
1987,0.2346040964
1988,0.2052785873
1989,0.1955034160
1990,0.2052785873
1991,0.2248289346
1992,0.2932551193
1993,0.3421309947
1994,0.4985337257
1995,0.5376344203
1996,0.4789833545
1997,0.4789833545
1998,0.4789833545
1999,0.4985337257
2000,0.4985337257
2001,1.0654937028
2002,0.8797654151
2003,0.7429130077
2004,0.6256109237
2005,0.5278592109
2006,0.4594330310
2007,0.4301075458
2008,0.3812316703
2009,0.3323558330
2010,0.3030303001
2011,0.2639296054
2012,0.2541544437
2013,0.2541544437
2014,0.2639296054
2015,0.2443792819
2016,0.2443792819
2017,0.2248289346
2018,0.1857282543
2019,0.1857282543
2020,0.1857282543
2021,0.2052785873
2022,0.2150537729
2023,0.2737047910
2024,0.2932551193
2025,0.2834799575
2026,0.2932551193
2027,0.2737047910
2028,0.2737047910
2029,0.2639296054
2030,0.2639296054
2031,0.2541544437
2032,0.3030303001
2033,0.2834799575
2034,0.2541544437
2035,0.2932551193
2036,0.3128054618
2037,0.3030303001
2038,0.3225806236
2039,0.3225806236
2040,0.3323558330
2041,0.3225806236
2042,0.3030303001
2043,0.2932551193
2044,0.3030303001
2045,0.2932551193
2046,0.3616813421
2047,0.3421309947
2048,0.3128054618
2049,0.2834799575
2050,0.3128054618
2051,0.3128054618
2052,0.3128054618
2053,0.3421309947
2054,0.3030303001
2055,0.3128054618
2056,0.2932551193
2057,0.2737047910
2058,0.2541544437
2059,0.2737047910
2060,0.2737047910
2061,0.2737047910
2062,0.2834799575
2063,0.2932551193
2064,0.2834799575
2065,0.2737047910
2066,0.3030303001
2067,0.2932551193
2068,0.2737047910
2069,0.2541544437
2070,0.2541544437
2071,0.2541544437
2072,0.2639296054
2073,0.2639296054
2074,0.2737047910
2075,0.2639296054
2076,0.2932551193
2077,0.3030303001
2078,0.2932551193
2079,0.2834799575
2080,0.2737047910
2081,0.3030303001
2082,0.2737047910
2083,0.2639296054
2084,0.2443792819
2085,0.2541544437
2086,0.2541544437
2087,0.2443792819
2088,0.2150537729
2089,0.2150537729
2090,0.2443792819
2091,0.2541544437
2092,0.2639296054
2093,0.2541544437
2094,0.2541544437
2095,0.2834799575
2096,0.2639296054
2097,0.2639296054
2098,0.2541544437
2099,0.2639296054
2100,0.2737047910
2101,0.2443792819
2102,0.2150537729
2103,0.2346040964
2104,0.1955034160
2105,0.2052785873
2106,0.2052785873
2107,0.2052785873
2108,0.1955034160
2109,0.1857282543
2110,0.2052785873
2111,0.2443792819
2112,0.2443792819
2113,0.2639296054
2114,0.2834799575
2115,0.3030303001
2116,0.3421309947
2117,0.3030303001
2118,0.2932551193
2119,0.2834799575
2120,0.2834799575
2121,0.2737047910
2122,0.2639296054
2123,0.2443792819
2124,0.2248289346
2125,0.2248289346
2126,0.2150537729
2127,0.2150537729
2128,0.2248289346
2129,0.2052785873
2130,0.2052785873
2131,0.2248289346
2132,0.1955034160
2133,0.1759530782
2134,0.1661779165
2135,0.1661779165
2136,0.2052785873
2137,0.2346040964
2138,0.2443792819
2139,0.2248289346
2140,0.2150537729
2141,0.2248289346
2142,0.2150537729
2143,0.2052785873
2144,0.2150537729
2145,0.2443792819
2146,0.2346040964
2147,0.2639296054
2148,0.2737047910
2149,0.2834799575
2150,0.3030303001
2151,0.3225806236
2152,0.3616813421
2153,0.3812316703
2154,0.4203323364
2155,0.4301075458
2156,0.4594330310
2157,0.4496578693
2158,0.4594330310
2159,0.5083088874
2160,0.4985337257
2161,0.4594330310
2162,0.4692081928
2163,0.4985337257
2164,0.4985337257
2165,0.5083088874
2166,0.5278592109
2167,0.5278592109
2168,0.5376344203
2169,0.4789833545
2170,0.5083088874
2171,0.5083088874
2172,0.4887585639
2173,0.4496578693
2174,0.4398827075
2175,0.4007820129
2176,0.4398827075
2177,0.4007820129
2178,0.3910068321
2179,0.3812316703
2180,0.3812316703
2181,0.3714565038
2182,0.3421309947
2183,0.3421309947
2184,0.3128054618
2185,0.3030303001
2186,0.2932551193
2187,0.2834799575
2188,0.2541544437
2189,0.2639296054
2190,0.2932551193
2191,0.2443792819
2192,0.2541544437
2193,0.3421309947
2194,0.3225806236
2195,0.2932551193
2196,0.2737047910
2197,0.2737047910
2198,0.3030303001
2199,0.2834799575
2200,0.2639296054
2201,0.2932551193
2202,0.2932551193
2203,0.3225806236
2204,0.3616813421
2205,0.3519061565
2206,0.3421309947
2207,0.3323558330
2208,0.3323558330
2209,0.3519061565
2210,0.3519061565
2211,0.3519061565
2212,0.3421309947
2213,0.3519061565
2214,0.3519061565
2215,0.3323558330
2216,0.3421309947
2217,0.3128054618
2218,0.3225806236
2219,0.2834799575
2220,0.2834799575
2221,0.2834799575
2222,0.2737047910
2223,0.2639296054
2224,0.2639296054
2225,0.2834799575
2226,0.2639296054
2227,0.2737047910
2228,0.2932551193
2229,0.2639296054
2230,0.2737047910
2231,0.2639296054
2232,0.2443792819
2233,0.2443792819
2234,0.2443792819
2235,0.2541544437
2236,0.2248289346
2237,0.1955034160
2238,0.1661779165
2239,0.1368523955
2240,0.1075268864
2241,0.0879765415
2242,0.0684261989
2243,0.0684261989
2244,0.0488758516
2245,0.0391006832
2246,0.0293255119
2247,0.0293255119
2248,0.0195503416
2249,0.0195503416
2250,0.0097751703
2251,0.0195503416
2252,0.0195503416
2253,0.0195503416
2254,0.0097751703
2255,0.0097751703
2256,0.0097751703
2257,0.0000000000
2258,0.0000000000
2259,0.0000000000
2260,0.0097751703
2261,0.0000000000
2262,0.0000000000
2263,0.0000000000
2264,0.0000000000
2265,0.0000000000
2266,0.0000000000
2267,0.0000000000
2268,0.0000000000
2269,0.0000000000
2270,0.0000000000
2271,0.0000000000
2272,0.0000000000
2273,0.0000000000
2274,0.0000000000
2275,0.0000000000
2276,0.0000000000
2277,0.0000000000
2278,0.0000000000
2279,0.0000000000
2280,0.0000000000
2281,0.0000000000
2282,0.0000000000
2283,0.0000000000
2284,0.0000000000
2285,0.0000000000
2286,0.0000000000
2287,0.0000000000
2288,0.0000000000
2289,0.0000000000
2290,0.0000000000
2291,0.0000000000
2292,0.0000000000
2293,0.0000000000
2294,0.0000000000
2295,0.0000000000
2296,0.0000000000
2297,0.0000000000
2298,0.0000000000
2299,0.0000000000
2300,0.0000000000
2301,0.0000000000
2302,0.0097751703
2303,0.0000000000
2304,0.0097751703
2305,0.0097751703
2306,0.0097751703
2307,0.0097751703
2308,0.0097751703
2309,0.0097751703
2310,0.0097751703
2311,0.0097751703
2312,0.0195503416
2313,0.0195503416
2314,0.0195503416
2315,0.0195503416
2316,0.0195503416
2317,0.0097751703
2318,0.0097751703
2319,0.0097751703
2320,0.0097751703
2321,0.0097751703
2322,0.0097751703
2323,0.0097751703
2324,0.0097751703
2325,0.0097751703
2326,0.0195503416
2327,0.0195503416
2328,0.0097751703
2329,0.0097751703
2330,0.0097751703
2331,0.0000000000
2332,0.0097751703
2333,0.0000000000
2334,0.0000000000
2335,0.0000000000
2336,0.0000000000
2337,0.0000000000
2338,0.0000000000
2339,0.0000000000
2340,0.0000000000
2341,0.0097751703
2342,0.0097751703
2343,0.0195503416
2344,0.0195503416
2345,0.0293255119
2346,0.0195503416
2347,0.0195503416
2348,0.0097751703
2349,0.0097751703
2350,0.0097751703
2351,0.0000000000
2352,0.0000000000
2353,0.0000000000
2354,0.0000000000
2355,0.0000000000
2356,0.0000000000
2357,0.0000000000
2358,0.0000000000
2359,0.0000000000
2360,0.0000000000
2361,0.0000000000
2362,0.0000000000
2363,0.0000000000
2364,0.0000000000
2365,0.0000000000
2366,0.0097751703
2367,0.0097751703
2368,0.0097751703
2369,0.0097751703
2370,0.0097751703
2371,0.0000000000
2372,0.0097751703
2373,0.0000000000
2374,0.0000000000
2375,0.0000000000
2376,0.0000000000
2377,0.0000000000
2378,0.0000000000
2379,0.0000000000
2380,0.0000000000
2381,0.0000000000
2382,0.0097751703
2383,0.0000000000
2384,0.0000000000
2385,0.0097751703
2386,0.0097751703
2387,0.0097751703
2388,0.0000000000
2389,0.0097751703
2390,0.0097751703
2391,0.0097751703
2392,0.0097751703
2393,0.0097751703
2394,0.0097751703
2395,0.0097751703
2396,0.0000000000
2397,0.0097751703
2398,0.0000000000
2399,0.0000000000
2400,0.0000000000
2401,0.0000000000
2402,0.0000000000
2403,0.0000000000
2404,0.0000000000
2405,0.0000000000
2406,0.0000000000
2407,0.0000000000
2408,0.0000000000
2409,0.0000000000
2410,0.0000000000
2411,0.0000000000
2412,0.0000000000
2413,0.0000000000
2414,0.0000000000
2415,0.0000000000
2416,0.0000000000
2417,0.0000000000
2418,0.0000000000
2419,0.0000000000
2420,0.0000000000
2421,0.0000000000
2422,0.0000000000
2423,0.0000000000
2424,0.0000000000
2425,0.0000000000
2426,0.0000000000
2427,0.0000000000
2428,0.0000000000
2429,0.0000000000
2430,0.0000000000
2431,0.0000000000
2432,0.0000000000
2433,0.0000000000
2434,0.0000000000
2435,0.0000000000
2436,0.0000000000
2437,0.0000000000
2438,0.0000000000
2439,0.0000000000
2440,0.0000000000
2441,0.0000000000
2442,0.0000000000
2443,0.0000000000
2444,0.0000000000
2445,0.0097751703
2446,0.0195503416
2447,0.0195503416
2448,0.0195503416
2449,0.0097751703
2450,0.0195503416
2451,0.0195503416
2452,0.0391006832
2453,0.0391006832
2454,0.0293255119
2455,0.0391006832
2456,0.0293255119
2457,0.0293255119
2458,0.0195503416
2459,0.0195503416
2460,0.0097751703
2461,0.0097751703
2462,0.0000000000
2463,0.0000000000
2464,0.0000000000
2465,0.0000000000
2466,0.0000000000
2467,0.0000000000
2468,0.0000000000
2469,0.0000000000
2470,0.0000000000
2471,0.0000000000
2472,0.0000000000
2473,0.0000000000
2474,0.0000000000
2475,0.0000000000
2476,0.0000000000
2477,0.0000000000
2478,0.0000000000
2479,0.0000000000
2480,0.0000000000
2481,0.0000000000
2482,0.0000000000
2483,0.0000000000
2484,0.0000000000
2485,0.0000000000
2486,0.0000000000
2487,0.0000000000
2488,0.0000000000
2489,0.0000000000
2490,0.0000000000
2491,0.0000000000
2492,0.0000000000
2493,0.0000000000
2494,0.0000000000
2495,0.0000000000
2496,0.0000000000
2497,0.0000000000
2498,0.0000000000
2499,0.0000000000
2500,0.0000000000
2501,0.0000000000
2502,0.0000000000
2503,0.0000000000
2504,0.0000000000
2505,0.0000000000
2506,0.0000000000
2507,0.0000000000
2508,0.0000000000
2509,0.0000000000
2510,0.0000000000
2511,0.0000000000
2512,0.0000000000
2513,0.0000000000
2514,0.0000000000
2515,0.0000000000
2516,0.0000000000
2517,0.0000000000
2518,0.0000000000
2519,0.0000000000
2520,0.0000000000
2521,0.0000000000
2522,0.0000000000
2523,0.0000000000
2524,0.0000000000
2525,0.0000000000
2526,0.0000000000
2527,0.0000000000
2528,0.0000000000
2529,0.0000000000
2530,0.0000000000
2531,0.0000000000
2532,0.0000000000
2533,0.0000000000
2534,0.0000000000
2535,0.0000000000
2536,0.0000000000
2537,0.0000000000
2538,0.0000000000
2539,0.0000000000
2540,0.0000000000
2541,0.0000000000
2542,0.0000000000
2543,0.0000000000
2544,0.0000000000
2545,0.0000000000
2546,0.0000000000
2547,0.0000000000
2548,0.0000000000
2549,0.0000000000
2550,0.0000000000
2551,0.0000000000
2552,0.0000000000
2553,0.0000000000
2554,0.0000000000
2555,0.0000000000
2556,0.0000000000
2557,0.0000000000
2558,0.0000000000
2559,0.0000000000
2560,0.0000000000
2561,0.0000000000
2562,0.0000000000
2563,0.0000000000
2564,0.0000000000
2565,0.0000000000
2566,0.0000000000
2567,0.0000000000
2568,0.0000000000
2569,0.0000000000
2570,0.0000000000
2571,0.0000000000
2572,0.0000000000
2573,0.0000000000
2574,0.0000000000
2575,0.0000000000
2576,0.0000000000
2577,0.0000000000
2578,0.0000000000
2579,0.0000000000
2580,0.0000000000
2581,0.0000000000
2582,0.0000000000
2583,0.0000000000
2584,0.0000000000
2585,0.0000000000
2586,0.0000000000
2587,0.0000000000
2588,0.0000000000
2589,0.0000000000
2590,0.0000000000
2591,0.0000000000
2592,0.0000000000
2593,0.0000000000
2594,0.0000000000
2595,0.0000000000
2596,0.0000000000
2597,0.0000000000
2598,0.0000000000
2599,0.0000000000
2600,0.0000000000
2601,0.0000000000
2602,0.0000000000
2603,0.0000000000
2604,0.0000000000
2605,0.0000000000
2606,0.0000000000
2607,0.0000000000
2608,0.0000000000
2609,0.0000000000
2610,0.0000000000
2611,0.0000000000
2612,0.0000000000
2613,0.0000000000
2614,0.0000000000
2615,0.0000000000
2616,0.0000000000
2617,0.0000000000
2618,0.0000000000
2619,0.0000000000
2620,0.0000000000
2621,0.0000000000
2622,0.0000000000
2623,0.0000000000
2624,0.0000000000
2625,0.0000000000
2626,0.0000000000
2627,0.0000000000
2628,0.0000000000
2629,0.0000000000
2630,0.0000000000
2631,0.0000000000
2632,0.0000000000
2633,0.0000000000
2634,0.0000000000
2635,0.0000000000
2636,0.0000000000
2637,0.0000000000
2638,0.0000000000
2639,0.0000000000
2640,0.0000000000
2641,0.0000000000
2642,0.0000000000
2643,0.0000000000
2644,0.0000000000
2645,0.0000000000
2646,0.0000000000
2647,0.0000000000
2648,0.0000000000
2649,0.0000000000
2650,0.0000000000
2651,0.0000000000
2652,0.0000000000
2653,0.0000000000
2654,0.0000000000
2655,0.0000000000
2656,0.0000000000
2657,0.0000000000
2658,0.0000000000
2659,0.0000000000
2660,0.0000000000
2661,0.0000000000
2662,0.0000000000
2663,0.0000000000
2664,0.0000000000
2665,0.0000000000
2666,0.0000000000
2667,0.0000000000
2668,0.0000000000
2669,0.0000000000
2670,0.0000000000
2671,0.0000000000
2672,0.0000000000
2673,0.0000000000
2674,0.0000000000
2675,0.0000000000
2676,0.0000000000
2677,0.0000000000
2678,0.0000000000
2679,0.0000000000
2680,0.0000000000
2681,0.0000000000
2682,0.0000000000
2683,0.0000000000
2684,0.0000000000
2685,0.0000000000
2686,0.0000000000
2687,0.0000000000
2688,0.0000000000
2689,0.0000000000
2690,0.0000000000
2691,0.0000000000
2692,0.0000000000
2693,0.0000000000
2694,0.0000000000
2695,0.0000000000
2696,0.0000000000
2697,0.0000000000
2698,0.0000000000
2699,0.0000000000
2700,0.0000000000
2701,0.0000000000
2702,0.0000000000
2703,0.0000000000
2704,0.0000000000
2705,0.0000000000
2706,0.0000000000
2707,0.0000000000
2708,0.0000000000
2709,0.0000000000
2710,0.0000000000
2711,0.0000000000
2712,0.0000000000
2713,0.0000000000
2714,0.0000000000
2715,0.0000000000
2716,0.0000000000
2717,0.0000000000
2718,0.0000000000
2719,0.0000000000
2720,0.0000000000
2721,0.0000000000
2722,0.0000000000
2723,0.0000000000
2724,0.0000000000
2725,0.0000000000
2726,0.0000000000
2727,0.0000000000
2728,0.0000000000
2729,0.0000000000
2730,0.0000000000
2731,0.0000000000
2732,0.0000000000
2733,0.0000000000
2734,0.0000000000
2735,0.0000000000
2736,0.0000000000
2737,0.0000000000
2738,0.0000000000
2739,0.0000000000
2740,0.0000000000
2741,0.0000000000
2742,0.0000000000
2743,0.0000000000
2744,0.0000000000
2745,0.0000000000
2746,0.0000000000
2747,0.0000000000
2748,0.0000000000
2749,0.0000000000
2750,0.0000000000
2751,0.0000000000
2752,0.0000000000
2753,0.0000000000
2754,0.0000000000
2755,0.0000000000
2756,0.0000000000
2757,0.0000000000
2758,0.0000000000
2759,0.0000000000
2760,0.0000000000
2761,0.0000000000
2762,0.0000000000
2763,0.0000000000
2764,0.0000000000
2765,0.0000000000
2766,0.0000000000
2767,0.0000000000
2768,0.0000000000
2769,0.0000000000
2770,0.0000000000
2771,0.0000000000
2772,0.0000000000
2773,0.0000000000
2774,0.0000000000
2775,0.0000000000
2776,0.0000000000
2777,0.0000000000
2778,0.0000000000
2779,0.0000000000
2780,0.0000000000
2781,0.0000000000
2782,0.0000000000
2783,0.0000000000
2784,0.0000000000
2785,0.0000000000
2786,0.0000000000
2787,0.0000000000
2788,0.0000000000
2789,0.0000000000
2790,0.0000000000
2791,0.0000000000
2792,0.0000000000
2793,0.0000000000
2794,0.0000000000
2795,0.0000000000
2796,0.0000000000
2797,0.0000000000
2798,0.0000000000
2799,0.0000000000
2800,0.0000000000
2801,0.0000000000
2802,0.0000000000
2803,0.0000000000
2804,0.0000000000
2805,0.0000000000
2806,0.0000000000
2807,0.0000000000
2808,0.0000000000
2809,0.0000000000
2810,0.0000000000
2811,0.0000000000
2812,0.0000000000
2813,0.0000000000
2814,0.0000000000