0,1.4662756919
1,2.1896383762
2,2.4828934669
3,2.5904202461
4,2.6099705696
5,2.3655912876
6,1.9452590942
7,1.6031280517
8,1.3196481466
9,1.0948191833
10,0.9090909004
11,0.7624633312
12,0.6451612472
13,0.5376344203
14,0.4398827075
15,0.3910068321
16,0.3225806236
17,0.2737047910
18,0.2248289346
19,0.1955034160
20,0.1661779165
21,0.1466275596
22,0.1270772218
23,0.1466275596
24,0.1368523955
25,0.1173020482
26,0.1075268864
27,0.0977517032
28,0.1075268864
29,0.0977517032
30,0.0977517032
31,0.0879765415
32,0.0782013654
33,0.0488758516
34,0.0488758516
35,0.0391006832
36,0.0391006832
37,0.0293255119
38,0.0195503416
39,0.0195503416
40,0.0293255119
41,0.0488758516
42,0.0586510229
43,0.0586510229
44,0.0488758516
45,0.0391006832
46,0.0293255119
47,0.0293255119
48,0.0293255119
49,0.0293255119
50,0.0488758516
51,0.0586510229
52,0.0586510229
53,0.0684261989
54,0.0684261989
55,0.0586510229
56,0.0586510229
57,0.0488758516
58,0.0488758516
59,0.0391006832
60,0.0293255119
61,0.0293255119
62,0.0586510229
63,0.0488758516
64,0.0488758516
65,0.0488758516
66,0.0391006832
67,0.0293255119
68,0.0293255119
69,0.0293255119
70,0.0195503416
71,0.0195503416
72,0.0097751703
73,0.0097751703
74,0.0097751703
75,0.0097751703
76,0.0195503416
77,0.0488758516
78,0.0977517032
79,0.0782013654
80,0.0684261989
81,0.0586510229
82,0.0488758516
83,0.0586510229
84,0.0586510229
85,0.0684261989
86,0.0879765415
87,0.1270772218
88,0.1564027309
89,0.1466275596
90,0.1466275596
91,0.1955034160
92,0.2052785873
93,0.2150537729
94,0.2150537729
95,0.2541544437
96,0.2737047910
97,0.3421309947
98,0.3128054618
99,0.2834799575
100,0.2541544437
101,0.2150537729
102,0.2150537729
103,0.2052785873
104,0.2443792819
105,0.2541544437
106,0.2346040964
107,0.1955034160
108,0.1955034160
109,0.1857282543
110,0.1759530782
111,0.1759530782
112,0.1661779165
113,0.1661779165
114,0.2052785873
115,0.2248289346
116,0.2346040964
117,0.2150537729
118,0.1955034160
119,0.2150537729
120,0.2052785873
121,0.1857282543
122,0.1955034160
123,0.1661779165
124,0.1564027309
125,0.1564027309
126,0.1955034160
127,0.1857282543
128,0.1564027309
129,0.1466275596
130,0.1661779165
131,0.1857282543
132,0.1661779165
133,0.2346040964
134,0.2346040964
135,0.2346040964
136,0.2346040964
137,0.2443792819
138,0.2248289346
139,0.2248289346
140,0.2150537729
141,0.1955034160
142,0.1955034160
143,0.1955034160
144,0.2248289346
145,0.2052785873
146,0.2150537729
147,0.2737047910
148,0.2639296054
149,0.2541544437
150,0.2541544437
151,0.2639296054
152,0.2443792819
153,0.2443792819
154,0.2639296054
155,0.2541544437
156,0.2150537729
157,0.2150537729
158,0.2541544437
159,0.2443792819
160,0.2248289346
161,0.2150537729
162,0.2248289346
163,0.2150537729
164,0.2248289346
165,0.2248289346
166,0.2248289346
167,0.2248289346
168,0.2052785873
169,0.1955034160
170,0.2346040964
171,0.2346040964
172,0.2052785873
173,0.1955034160
174,0.2052785873
175,0.1857282543
176,0.1661779165
177,0.1759530782
178,0.1759530782
179,0.1661779165
180,0.1564027309
181,0.1564027309
182,0.1857282543
183,0.1564027309
184,0.1466275596
185,0.1857282543
186,0.2052785873
187,0.2052785873
188,0.1661779165
189,0.1955034160
190,0.1955034160
191,0.1955034160
192,0.1759530782
193,0.1564027309
194,0.1466275596
195,0.1466275596
196,0.1661779165
197,0.1857282543
198,0.1955034160
199,0.1759530782
200,0.1661779165
201,0.1368523955
202,0.1368523955
203,0.1270772218
204,0.1173020482
205,0.1173020482
206,0.1466275596
207,0.1173020482
208,0.1173020482
209,0.1466275596
210,0.1368523955
211,0.1075268864
212,0.0977517032
213,0.0879765415
214,0.0782013654
215,0.0684261989
216,0.1173020482
217,0.0977517032
218,0.0879765415
219,0.0879765415
220,0.0782013654
221,0.0782013654
222,0.0684261989
223,0.0782013654
224,0.0879765415
225,0.0879765415
226,0.0879765415
227,0.0879765415
228,0.0977517032
229,0.1173020482
230,0.1075268864
231,0.1270772218
232,0.1466275596
233,0.1270772218
234,0.1270772218
235,0.1270772218
236,0.1270772218
237,0.1466275596
238,0.1466275596
239,0.1270772218
240,0.1075268864
241,0.1173020482
242,0.1270772218
243,0.1270772218
244,0.1173020482
245,0.1173020482
246,0.1075268864
247,0.1075268864
248,0.0977517032
249,0.0879765415
250,0.0977517032
251,0.1173020482
252,0.1075268864
253,0.1075268864
254,0.1075268864
255,0.1075268864
256,0.1075268864
257,0.1173020482
258,0.1368523955
259,0.1466275596
260,0.1368523955
261,0.1270772218
262,0.1661779165
263,0.1661779165
264,0.1759530782
265,0.1759530782
266,0.1857282543
267,0.1661779165
268,0.1661779165
269,0.1759530782
270,0.1661779165
271,0.1564027309
272,0.1368523955
273,0.1466275596
274,0.1661779165
275,0.1564027309
276,0.1564027309
277,0.1759530782
278,0.1759530782
279,0.1759530782
280,0.1661779165
281,0.1564027309
282,0.1368523955
283,0.1075268864
284,0.1075268864
285,0.1466275596
286,0.1368523955
287,0.1661779165
288,0.1564027309
289,0.1466275596
290,0.1661779165
291,0.1466275596
292,0.1368523955
293,0.1368523955
294,0.1173020482
295,0.1075268864
296,0.0977517032
297,0.0977517032
298,0.1270772218
299,0.1466275596
300,0.1466275596
301,0.1466275596
302,0.1466275596
303,0.1368523955
304,0.1368523955
305,0.1270772218
306,0.1075268864
307,0.0977517032
308,0.1270772218
309,0.1075268864
310,0.0977517032
311,0.1075268864
312,0.1173020482
313,0.1075268864
314,0.1173020482
315,0.1075268864
316,0.1368523955
317,0.1368523955
318,0.1173020482
319,0.0977517032
320,0.1075268864
321,0.1075268864
322,0.1270772218
323,0.1173020482
324,0.1075268864
325,0.1075268864
326,0.1173020482
327,0.1075268864
328,0.1075268864
329,0.1173020482
330,0.1173020482
331,0.1270772218
332,0.1270772218
333,0.1270772218
334,0.1270772218
335,0.1075268864
336,0.1173020482
337,0.0977517032
338,0.1564027309
339,0.0977517032
340,0.1075268864
341,0.1075268864
342,0.0977517032
343,0.0879765415
344,0.1075268864
345,0.1270772218
346,0.1173020482
347,0.1368523955
348,0.1564027309
349,0.1661779165
350,0.1661779165
351,0.1661779165
352,0.1466275596
353,0.1270772218
354,0.1270772218
355,0.1173020482
356,0.1075268864
357,0.1173020482
358,0.1173020482
359,0.1270772218
360,0.1270772218
361,0.1466275596
362,0.1368523955
363,0.1368523955
364,0.1759530782
365,0.1075268864
366,0.0977517032
367,0.1173020482
368,0.1075268864
369,0.1075268864
370,0.1173020482
371,0.1173020482
372,0.0977517032
373,0.1075268864
374,0.1075268864
375,0.1075268864
376,0.0879765415
377,0.1075268864
378,0.0879765415
379,0.0782013654
380,0.0879765415
381,0.0879765415
382,0.0782013654
383,0.0684261989
384,0.0684261989
385,0.0977517032
386,0.1075268864
387,0.0977517032
388,0.1075268864
389,0.1368523955
390,0.1368523955
391,0.1466275596
392,0.1466275596
393,0.1368523955
394,0.1368523955
395,0.1368523955
396,0.1270772218
397,0.1564027309
398,0.1368523955
399,0.1368523955
400,0.1270772218
401,0.1270772218
402,0.1075268864
403,0.1075268864
404,0.1173020482
405,0.1173020482
406,0.1173020482
407,0.1466275596
408,0.1466275596
409,0.1368523955
410,0.1759530782
411,0.1564027309
412,0.1368523955
413,0.1564027309
414,0.1466275596
415,0.1857282543
416,0.1759530782
417,0.1564027309
418,0.1466275596
419,0.1466275596
420,0.1466275596
421,0.1661779165
422,0.1564027309
423,0.1564027309
424,0.1368523955
425,0.1368523955
426,0.1270772218
427,0.1270772218
428,0.1270772218
429,0.1075268864
430,0.0977517032
431,0.0977517032
432,0.0977517032
433,0.0879765415
434,0.0879765415
435,0.1075268864
436,0.1173020482
437,0.0977517032
438,0.1075268864
439,0.1173020482
440,0.1270772218
441,0.1270772218
442,0.1075268864
443,0.1075268864
444,0.0977517032
445,0.0977517032
446,0.0977517032
447,0.1270772218
448,0.1368523955
449,0.1368523955
450,0.1368523955
451,0.1270772218
452,0.1368523955
453,0.1173020482
454,0.1075268864
455,0.0879765415
456,0.0977517032
457,0.1173020482
458,0.1173020482
459,0.1075268864
460,0.1173020482
461,0.0977517032
462,0.0879765415
463,0.1173020482
464,0.1173020482
465,0.1368523955
466,0.2150537729
467,0.2150537729
468,0.2248289346
469,0.2834799575
470,0.3323558330
471,0.3421309947
472,0.3128054618
473,0.3128054618
474,0.4496578693
475,0.4007820129
476,0.3714565038
477,0.3812316703
478,0.3519061565
479,0.3616813421
480,0.4496578693
481,0.4692081928
482,0.5083088874
483,0.5474095821
484,0.6158357620
485,0.5474095821
486,0.5474095821
487,0.5083088874
488,0.5962854385
489,0.6256109237
490,0.6549364089
491,0.7135874748
492,0.7917888641
493,0.7429130077
494,0.7624633312
495,0.8504399299
496,0.8015640258
497,0.9677418708
498,1.0068426132
499,1.0361680984
500,1.0361680984
501,1.1143695116
502,1.1730204820
503,1.0263929367
504,1.0557184219
505,1.2707722187
506,1.1632453203
507,1.1632453203
508,1.2512218952
509,1.3294233083
510,1.4662756919
511,1.4760508537
512,1.4662756919
513,1.4956011772
514,1.4662756919
515,1.4467253684
516,1.4760508537
517,1.4271749496
518,1.3978494453
519,1.4858260154
520,1.4271749496
521,1.3685239553
522,1.4271749496
523,1.4467253684
524,1.3782991170
525,1.4467253684
526,1.3880742835
527,1.3587487936
528,1.3978494453
529,1.2121212482
530,1.1143695116
531,1.0361680984
532,1.0068426132
533,0.9579667091
534,0.9481915473
535,0.9090909004
536,0.9090909004
537,0.8406646728
538,0.7722384929
539,0.8993157386
540,0.8406646728
541,0.8406646728
542,0.8113391876
543,0.7429130077
544,0.7135874748
545,0.7624633312
546,0.7429130077
547,0.6647116661
548,0.6353860855
549,0.6256109237
550,0.5669599056
551,0.4985337257
552,0.5083088874
553,0.4496578693
554,0.4105571746
555,0.4398827075
556,0.3910068321
557,0.3421309947
558,0.3030303001
559,0.3225806236
560,0.2932551193
561,0.2932551193
562,0.2737047910
563,0.2639296054
564,0.2346040964
565,0.2248289346
566,0.2541544437
567,0.2639296054
568,0.2932551193
569,0.2834799575
570,0.2932551193
571,0.2932551193
572,0.2932551193
573,0.3030303001
574,0.3030303001
575,0.2932551193
576,0.3323558330
577,0.3323558330
578,0.2932551193
579,0.3616813421
580,0.3323558330
581,0.3225806236
582,0.3812316703
583,0.3519061565
584,0.3421309947
585,0.3421309947
586,0.3225806236
587,0.3128054618
588,0.3323558330
589,0.3323558330
590,0.3519061565
591,0.3519061565
592,0.3421309947
593,0.3225806236
594,0.3030303001
595,0.3910068321
596,0.4007820129
597,0.4496578693
598,0.4887585639
599,0.6256109237
600,0.6451612472
601,0.5865102291
602,0.5669599056
603,0.5474095821
604,0.5474095821
605,0.5376344203
606,0.5865102291
607,0.6353860855
608,0.6451612472
609,0.6158357620
610,0.5865102291
611,0.6451612472
612,0.6940371513
613,0.7038123130
614,0.7526881694
615,0.7135874748
616,0.6940371513
617,0.7331378459
618,0.6647116661
619,0.6256109237
620,0.5669599056
621,0.5474095821
622,0.5474095821
623,0.5474095821
624,0.4789833545
625,0.5278592109
626,0.5962854385
627,0.6647116661
628,0.6353860855
629,0.6158357620
630,0.5669599056
631,0.5278592109
632,0.4692081928
633,0.4789833545
634,0.4301075458
635,0.5083088874
636,0.5278592109
637,0.4692081928
638,0.4105571746
639,0.3812316703
640,0.3616813421
641,0.3421309947
642,0.3225806236
643,0.3225806236
644,0.2932551193
645,0.2737047910
646,0.2541544437
647,0.2346040964
648,0.2639296054
649,0.2541544437
650,0.2346040964
651,0.2052785873
652,0.1759530782
653,0.1466275596
654,0.1173020482
655,0.0977517032
656,0.0879765415
657,0.0684261989
658,0.0586510229
659,0.0586510229
660,0.0391006832
661,0.0293255119
662,0.0293255119
663,0.0293255119
664,0.0293255119
665,0.0293255119
666,0.0391006832
667,0.0391006832
668,0.0488758516
669,0.0586510229
670,0.0488758516
671,0.0488758516
672,0.0488758516
673,0.0684261989
674,0.0684261989
675,0.0586510229
676,0.0488758516
677,0.0391006832
678,0.0488758516
679,0.0586510229
680,0.1075268864
681,0.1075268864
682,0.0879765415
683,0.0879765415
684,0.0977517032
685,0.1075268864
686,0.1466275596
687,0.2346040964
688,0.2150537729
689,0.2052785873
690,0.1759530782
691,0.1857282543
692,0.1759530782
693,0.1759530782
694,0.1857282543
695,0.1661779165
696,0.1564027309
697,0.1564027309
698,0.2052785873
699,0.1857282543
700,0.1661779165
701,0.1564027309
702,0.1564027309
703,0.1661779165
704,0.2052785873
705,0.2346040964
706,0.2443792819
707,0.2150537729
708,0.2541544437
709,0.2639296054
710,0.2834799575
711,0.2639296054
712,0.2443792819
713,0.2248289346
714,0.2639296054
715,0.2443792819
716,0.2541544437
717,0.3030303001
718,0.2834799575
719,0.2834799575
720,0.3030303001
721,0.3225806236
722,0.3225806236
723,0.3421309947
724,0.3030303001
725,0.2932551193
726,0.3323558330
727,0.2834799575
728,0.2248289346
729,0.2248289346
730,0.2346040964
731,0.2150537729
732,0.2052785873
733,0.2346040964
734,0.2150537729
735,0.1955034160
736,0.2052785873
737,0.1955034160
738,0.1759530782
739,0.2150537729
740,0.2150537729
741,0.2346040964
742,0.2346040964
743,0.2346040964
744,0.2150537729
745,0.1661779165
746,0.1955034160
747,0.1857282543
748,0.1661779165
749,0.1466275596
750,0.1270772218
751,0.0977517032
752,0.0782013654
753,0.0879765415
754,0.1270772218
755,0.1466275596
756,0.1368523955
757,0.1466275596
758,0.1466275596
759,0.1466275596
760,0.1564027309
761,0.1661779165
762,0.1661779165
763,0.1368523955
764,0.1368523955
765,0.1368523955
766,0.1564027309
767,0.1564027309
768,0.1466275596
769,0.1270772218
770,0.1368523955
771,0.1466275596
772,0.1270772218
773,0.1368523955
774,0.1466275596
775,0.1661779165
776,0.1564027309
777,0.1955034160
778,0.1955034160
779,0.2052785873
780,0.1759530782
781,0.2346040964
782,0.2346040964
783,0.2541544437
784,0.1955034160
785,0.2639296054
786,0.2834799575
787,0.3030303001
788,0.3030303001
789,0.2834799575
790,0.2834799575
791,0.2737047910
792,0.2346040964
793,0.2346040964
794,0.2346040964
795,0.2150537729
796,0.1857282543
797,0.2052785873
798,0.2248289346
799,0.2248289346
800,0.1955034160
801,0.1759530782
802,0.1857282543
803,0.1857282543
804,0.2052785873
805,0.2639296054
806,0.3030303001
807,0.3519061565
808,0.3519061565
809,0.4301075458
810,0.4301075458
811,0.4007820129
812,0.3616813421
813,0.3225806236
814,0.3128054618
815,0.2346040964
816,0.2346040964
817,0.1955034160
818,0.1759530782
819,0.1661779165
820,0.1466275596
821,0.1368523955
822,0.1368523955
823,0.1368523955
824,0.1368523955
825,0.1368523955
826,0.1466275596
827,0.1368523955
828,0.1173020482
829,0.1075268864
830,0.0977517032
831,0.0879765415
832,0.1075268864
833,0.0977517032
834,0.1075268864
835,0.1075268864
836,0.1173020482
837,0.1466275596
838,0.1270772218
839,0.1075268864
840,0.1075268864
841,0.1075268864
842,0.1075268864
843,0.1173020482
844,0.0977517032
845,0.0879765415
846,0.0782013654
847,0.0684261989
848,0.0684261989
849,0.0586510229
850,0.0684261989
851,0.0586510229
852,0.0586510229
853,0.0586510229
854,0.0684261989
855,0.1075268864
856,0.1075268864
857,0.1270772218
858,0.1564027309
859,0.1270772218
860,0.1173020482
861,0.1173020482
862,0.1173020482
863,0.0977517032
864,0.0977517032
865,0.0879765415
866,0.0879765415
867,0.0977517032
868,0.0977517032
869,0.1173020482
870,0.1075268864
871,0.1075268864
872,0.1368523955
873,0.1075268864
874,0.1075268864
875,0.1270772218
876,0.1075268864
877,0.0977517032
878,0.1075268864
879,0.1564027309
880,0.1466275596
881,0.1564027309
882,0.1466275596
883,0.1759530782
884,0.1759530782
885,0.1955034160
886,0.2052785873
887,0.2346040964
888,0.2639296054
889,0.2541544437
890,0.2443792819
891,0.2248289346
892,0.1955034160
893,0.1955034160
894,0.2052785873
895,0.2541544437
896,0.2932551193
897,0.4007820129
898,0.4398827075
899,0.4007820129
900,0.4203323364
901,0.4398827075
902,0.4594330310
903,0.4692081928
904,0.5571847438
905,0.6353860855
906,0.6158357620
907,0.7038123130
908,0.7429130077
909,0.6744868278
910,0.7429130077
911,0.7331378459
912,0.8895405769
913,0.9579667091
914,0.9579667091
915,0.9481915473
916,0.9188660621
917,0.9384163856
918,0.9775171279
919,0.9970674514
920,1.0166177749
921,1.0459432601
922,1.1730204820
923,1.1436949968
924,1.0557184219
925,1.0654937028
926,1.1241446733
927,1.1534701585
928,1.1339198350
929,1.1534701585
930,1.4076246261
931,1.3391984701
932,1.3685239553
933,1.3685239553
934,1.4271749496
935,1.4467253684
936,1.3782991170
937,1.4076246261
938,1.3000977039
939,1.3978494453
940,1.2903225421
941,1.2707722187
942,1.1339198350
943,1.1925709247
944,1.1925709247
945,1.3685239553
946,1.4173997879
947,1.3587487936
948,1.3098728656
949,1.2023460865
950,1.2316715717
951,1.2218964099
952,1.3098728656
953,1.2805473804
954,1.2121212482
955,1.2218964099
956,1.2707722187
957,1.2316715717
958,1.3782991170
959,1.3000977039
960,1.2023460865
961,1.1241446733
962,1.1045943498
963,0.9872922897
964,0.9286412239
965,0.8602150917
966,0.8113391876
967,0.8113391876
968,0.7526881694
969,0.7331378459
970,0.6940371513
971,0.6647116661
972,0.6842619895
973,0.6842619895
974,0.7624633312
975,0.7331378459
976,0.7429130077
977,0.7526881694
978,0.8015640258
979,0.7233626842
980,0.7624633312
981,0.6744868278
982,0.6842619895
983,0.6940371513
984,0.6451612472
985,0.6940371513
986,0.6842619895
987,0.6842619895
988,0.6256109237
989,0.6256109237
990,0.6842619895
991,0.6256109237
992,0.6060606002
993,0.5571847438
994,0.5376344203
995,0.5180840492
996,0.5278592109
997,0.4789833545
998,0.4594330310
999,0.5278592109
1000,0.5180840492
1001,0.9579667091
1002,0.7526881694
1003,0.6060606002
1004,0.4789833545
1005,0.3812316703
1006,0.3128054618
1007,0.2541544437
1008,0.2052785873
1009,0.1661779165
1010,0.1368523955
1011,0.1075268864
1012,0.0879765415
1013,0.0782013654
1014,0.0684261989
1015,0.0684261989
1016,0.0684261989
1017,0.0684261989
1018,0.0782013654
1019,0.0782013654
1020,0.0684261989
1021,0.0586510229
1022,0.0488758516
1023,0.0488758516
1024,0.0391006832
1025,0.0488758516
1026,0.0488758516
1027,0.0488758516
1028,0.0488758516
1029,0.0586510229
1030,0.0684261989
1031,0.0586510229
1032,0.0684261989
1033,0.0684261989
1034,0.0586510229
1035,0.0586510229
1036,0.0684261989
1037,0.0684261989
1038,0.0684261989
1039,0.0684261989
1040,0.0586510229
1041,0.0586510229
1042,0.0488758516
1043,0.0488758516
1044,0.0488758516
1045,0.0391006832
1046,0.0293255119
1047,0.0293255119
1048,0.0293255119
1049,0.0293255119
1050,0.0293255119
1051,0.0293255119
1052,0.0488758516
1053,0.0488758516
1054,0.0488758516
1055,0.0391006832
1056,0.0391006832
1057,0.0488758516
1058,0.0391006832
1059,0.0293255119
1060,0.0293255119
1061,0.0293255119
1062,0.0195503416
1063,0.0195503416
1064,0.0195503416
1065,0.0195503416
1066,0.0195503416
1067,0.0293255119
1068,0.0195503416
1069,0.0195503416
1070,0.0195503416
1071,0.0097751703
1072,0.0097751703
1073,0.0097751703
1074,0.0195503416
1075,0.0097751703
1076,0.0195503416
1077,0.0195503416
1078,0.0195503416
1079,0.0195503416
1080,0.0097751703
1081,0.0097751703
1082,0.0097751703
1083,0.0097751703
1084,0.0097751703
1085,0.0097751703
1086,0.0097751703
1087,0.0097751703
1088,0.0097751703
1089,0.0097751703
1090,0.0195503416
1091,0.0097751703
1092,0.0097751703
1093,0.0195503416
1094,0.0293255119
1095,0.0293255119
1096,0.0293255119
1097,0.0391006832
1098,0.0293255119
1099,0.0293255119
1100,0.0293255119
1101,0.0391006832
1102,0.0782013654
1103,0.0782013654
1104,0.1075268864
1105,0.0977517032
1106,0.1270772218
1107,0.1661779165
1108,0.2248289346
1109,0.2248289346
1110,0.2052785873
1111,0.2248289346
1112,0.2346040964
1113,0.2248289346
1114,0.2248289346
1115,0.2834799575
1116,0.3323558330
1117,0.3421309947
1118,0.3323558330
1119,0.3812316703
1120,0.4301075458
1121,0.4301075458
1122,0.4301075458
1123,0.4789833545
1124,0.4789833545
1125,0.6158357620
1126,0.6549364089
1127,0.6451612472
1128,0.7038123130
1129,0.8015640258
1130,0.7233626842
1131,0.8015640258
1132,0.8699902534
1133,0.8406646728
1134,0.7722384929
1135,0.9188660621
1136,0.9970674514
1137,1.0557184219
1138,1.1045943498
1139,1.1241446733
1140,1.1925709247
1141,1.4467253684
1142,1.7204301357
1143,1.8963831901
1144,1.6715541839
1145,1.5151515007
1146,1.4271749496
1147,1.5151515007
1148,1.4271749496
1149,1.3782991170
1150,1.4076246261
1151,1.3196481466
1152,1.2805473804
1153,1.2903225421
1154,1.3098728656
1155,1.3489736318
1156,1.2414467334
1157,1.2414467334
1158,1.3782991170
1159,1.5347018241
1160,1.5444769859
1161,1.4369501113
1162,1.5053763389
1163,1.4662756919
1164,1.4565005302
1165,1.5347018241
1166,1.4271749496
1167,1.4662756919
1168,1.6911046504
1169,1.5933528900
1170,1.5347018241
1171,1.5542521476
1172,1.5444769859
1173,1.4467253684
1174,1.2512218952
1175,1.1730204820
1176,1.0557184219
1177,1.0850440216
1178,1.0263929367
1179,1.1339198350
1180,1.1045943498
1181,1.1632453203
1182,1.3000977039
1183,1.3000977039
1184,1.3196481466
1185,1.3294233083
1186,1.2218964099
1187,1.2023460865
1188,1.3880742835
1189,1.2218964099
1190,1.1534701585
1191,0.9872922897
1192,1.0263929367
1193,0.9775171279
1194,0.8406646728
1195,0.7038123130
1196,0.6744868278
1197,0.5669599056
1198,0.4789833545
1199,0.4789833545
1200,0.4496578693
1201,0.4301075458
1202,0.4007820129
1203,0.3910068321
1204,0.3714565038
1205,0.3421309947
1206,0.3812316703
1207,0.3519061565
1208,0.3323558330
1209,0.3030303001
1210,0.3225806236
1211,0.3714565038
1212,0.3616813421
1213,0.3519061565
1214,0.4203323364
1215,0.4496578693
1216,0.4105571746
1217,0.4496578693
1218,0.4496578693
1219,0.4692081928
1220,0.4887585639
1221,0.4594330310
1222,0.5180840492
1223,0.5571847438
1224,0.4887585639
1225,0.4887585639
1226,0.4594330310
1227,0.4496578693
1228,0.5083088874
1229,0.4985337257
1230,0.5180840492
1231,0.4985337257
1232,0.5376344203
1233,0.5376344203
1234,0.5083088874
1235,0.4887585639
1236,0.4203323364
1237,0.4007820129
1238,0.4007820129
1239,0.4203323364
1240,0.4007820129
1241,0.4301075458
1242,0.4692081928
1243,0.4789833545
1244,0.4203323364
1245,0.4301075458
1246,0.4496578693
1247,0.4105571746
1248,0.4203323364
1249,0.3910068321
1250,0.3616813421
1251,0.3519061565
1252,0.3616813421
1253,0.4496578693
1254,0.5962854385
1255,0.5278592109
1256,0.4789833545
1257,0.4692081928
1258,0.4301075458
1259,0.3714565038
1260,0.3714565038
1261,0.4203323364
1262,0.4105571746
1263,0.4496578693
1264,0.3714565038
1265,0.3225806236
1266,0.3323558330
1267,0.3616813421
1268,0.3323558330
1269,0.3128054618
1270,0.3030303001
1271,0.2737047910
1272,0.3030303001
1273,0.3128054618
1274,0.3030303001
1275,0.2639296054
1276,0.2639296054
1277,0.3225806236
1278,0.3225806236
1279,0.3030303001
1280,0.2541544437
1281,0.2052785873
1282,0.1759530782
1283,0.1759530782
1284,0.1564027309
1285,0.1466275596
1286,0.1466275596
1287,0.1466275596
1288,0.1368523955
1289,0.1075268864
1290,0.0879765415
1291,0.0977517032
1292,0.1368523955
1293,0.1368523955
1294,0.1270772218
1295,0.1075268864
1296,0.1173020482
1297,0.1173020482
1298,0.1368523955
1299,0.1466275596
1300,0.1466275596
1301,0.1564027309
1302,0.1466275596
1303,0.1270772218
1304,0.1173020482
1305,0.0879765415
1306,0.0782013654
1307,0.1075268864
1308,0.1173020482
1309,0.1173020482
1310,0.1368523955
1311,0.1466275596
1312,0.1270772218
1313,0.1075268864
1314,0.1173020482
1315,0.1075268864
1316,0.0977517032
1317,0.0782013654
1318,0.0684261989
1319,0.0684261989
1320,0.0782013654
1321,0.0879765415
1322,0.0977517032
1323,0.1173020482
1324,0.1270772218
1325,0.1075268864
1326,0.1075268864
1327,0.0879765415
1328,0.0879765415
1329,0.0977517032
1330,0.0977517032
1331,0.1075268864
1332,0.0879765415
1333,0.1075268864
1334,0.0977517032
1335,0.0782013654
1336,0.0684261989
1337,0.0586510229
1338,0.0684261989
1339,0.0977517032
1340,0.0879765415
1341,0.0782013654
1342,0.0879765415
1343,0.0879765415
1344,0.0586510229
1345,0.0293255119
1346,0.0391006832
1347,0.0293255119
1348,0.0195503416
1349,0.0293255119
1350,0.0195503416
1351,0.0293255119
1352,0.0391006832
1353,0.0391006832
1354,0.0293255119
1355,0.0293255119
1356,0.0293255119
1357,0.0391006832
1358,0.0293255119
1359,0.0391006832
1360,0.0488758516
1361,0.0586510229
1362,0.0586510229
1363,0.0391006832
1364,0.0586510229
1365,0.0488758516
1366,0.0488758516
1367,0.0391006832
1368,0.0293255119
1369,0.0293255119
1370,0.0195503416
1371,0.0097751703
1372,0.0195503416
1373,0.0195503416
1374,0.0195503416
1375,0.0097751703
1376,0.0293255119
1377,0.0293255119
1378,0.0097751703
1379,0.0293255119
1380,0.0195503416
1381,0.0097751703
1382,0.0195503416
1383,0.0000000000
1384,0.0293255119
1385,0.0488758516
1386,0.0488758516
1387,0.0293255119
1388,0.0195503416
1389,0.0488758516
1390,0.0586510229
1391,0.0586510229
1392,0.0586510229
1393,0.0684261989
1394,0.0684261989
1395,0.0684261989
1396,0.0684261989
1397,0.0586510229
1398,0.0684261989
1399,0.0684261989
1400,0.0586510229
1401,0.0684261989
1402,0.0488758516
1403,0.0488758516
1404,0.0488758516
1405,0.0391006832
1406,0.0293255119
1407,0.0586510229
1408,0.0782013654
1409,0.0684261989
1410,0.0782013654
1411,0.0684261989
1412,0.0586510229
1413,0.0684261989
1414,0.0684261989
1415,0.0684261989
1416,0.0782013654
1417,0.0684261989
1418,0.0684261989
1419,0.0586510229
1420,0.0586510229
1421,0.0782013654
1422,0.0782013654
1423,0.0684261989
1424,0.0684261989
1425,0.0782013654
1426,0.0782013654
1427,0.0782013654
1428,0.0782013654
1429,0.0684261989
1430,0.0586510229
1431,0.0684261989
1432,0.0684261989
1433,0.0782013654
1434,0.0684261989
1435,0.0684261989
1436,0.0684261989
1437,0.0684261989
1438,0.0586510229
1439,0.0684261989
1440,0.0488758516
1441,0.0488758516
1442,0.0586510229
1443,0.0488758516
1444,0.0488758516
1445,0.0488758516
1446,0.0488758516
1447,0.0488758516
1448,0.0488758516
1449,0.0391006832
1450,0.0391006832
1451,0.0391006832
1452,0.0391006832
1453,0.0391006832
1454,0.0293255119
1455,0.0488758516
1456,0.0586510229
1457,0.0586510229
1458,0.0488758516
1459,0.0488758516
1460,0.0391006832
1461,0.0391006832
1462,0.0488758516
1463,0.0488758516
1464,0.0391006832
1465,0.0391006832
1466,0.0488758516
1467,0.0391006832
1468,0.0293255119
1469,0.0195503416
1470,0.0293255119
1471,0.0293255119
1472,0.0391006832
1473,0.0977517032
1474,0.0293255119
1475,0.0391006832
1476,0.0391006832
1477,0.0391006832
1478,0.0293255119
1479,0.0293255119
1480,0.0293255119
1481,0.0195503416
1482,0.0195503416
1483,0.0097751703
1484,0.0097751703
1485,0.0195503416
1486,0.0195503416
1487,0.0195503416
1488,0.0097751703
1489,0.0097751703
1490,0.0097751703
1491,0.0097751703
1492,0.0097751703
1493,0.0195503416
1494,0.0195503416
1495,0.0097751703
1496,0.0097751703
1497,0.0097751703
1498,0.0097751703
1499,0.0195503416
1500,0.0195503416
1501,0.0097751703
1502,0.0097751703
1503,0.0097751703
1504,0.0097751703
1505,0.0000000000
1506,0.0391006832
1507,0.0293255119
1508,0.0586510229
1509,0.0684261989
1510,0.0684261989
1511,0.0879765415
1512,0.0977517032
1513,0.1173020482
1514,0.1564027309
1515,0.1955034160
1516,0.1564027309
1517,0.1759530782
1518,0.1857282543
1519,0.2052785873
1520,0.2443792819
1521,0.2443792819
1522,0.2639296054
1523,0.2639296054
1524,0.3714565038
1525,0.4203323364
1526,0.4007820129
1527,0.3910068321
1528,0.4301075458
1529,0.4007820129
1530,0.4007820129
1531,0.4692081928
1532,0.5083088874
1533,0.5962854385
1534,0.5474095821
1535,0.5669599056
1536,0.6158357620
1537,0.7624633312
1538,0.7038123130
1539,0.6744868278
1540,0.6549364089
1541,0.6451612472
1542,0.6256109237
1543,0.6256109237
1544,0.6842619895
1545,0.6842619895
1546,0.8993157386
1547,0.8602150917
1548,0.7722384929
1549,0.7526881694
1550,0.9286412239
1551,0.9677418708
1552,0.8993157386
1553,0.8797654151
1554,1.0850440216
1555,1.0459432601
1556,1.0068426132
1557,1.1339198350
1558,1.0948191833
1559,1.0557184219
1560,1.0948191833
1561,1.1436949968
1562,1.2609970569
1563,1.2414467334
1564,1.1632453203
1565,1.0654937028
1566,1.1436949968
1567,1.1045943498
1568,1.0166177749
1569,1.1143695116
1570,1.3489736318
1571,1.5640273094
1572,1.4369501113
1573,1.4565005302
1574,1.4076246261
1575,1.4565005302
1576,1.3978494453
1577,1.3196481466
1578,1.2512218952
1579,1.1241446733
1580,1.0361680984
1581,0.8895405769
1582,0.8602150917
1583,0.9188660621
1584,0.8602150917
1585,0.8308895111
1586,0.8113391876
1587,0.7233626842
1588,0.6647116661
1589,0.6158357620
1590,0.5865102291
1591,0.5278592109
1592,0.5083088874
1593,0.4789833545
1594,0.4301075458
1595,0.4496578693
1596,0.4887585639
1597,0.4692081928
1598,0.4398827075
1599,0.4594330310
1600,0.4496578693
1601,0.4301075458
1602,0.4789833545
1603,0.4985337257
1604,0.4985337257
1605,0.4398827075
1606,0.5376344203
1607,0.6158357620
1608,0.5767350673
1609,0.5180840492
1610,0.5571847438
1611,0.5865102291
1612,0.5083088874
1613,0.5278592109
1614,0.5278592109
1615,0.5376344203
1616,0.5376344203
1617,0.4985337257
1618,0.5376344203
1619,0.5180840492
1620,0.4985337257
1621,0.5474095821
1622,0.5278592109
1623,0.4985337257
1624,0.5278592109
1625,0.5376344203
1626,0.4985337257
1627,0.5180840492
1628,0.5083088874
1629,0.5278592109
1630,0.4887585639
1631,0.5865102291
1632,0.5669599056
1633,0.5083088874
1634,0.4301075458
1635,0.4301075458
1636,0.4887585639
1637,0.4887585639
1638,0.5571847438
1639,0.5669599056
1640,0.4203323364
1641,0.4887585639
1642,0.5376344203
1643,0.5571847438
1644,0.5180840492
1645,0.5083088874
1646,0.5669599056
1647,0.5278592109
1648,0.6256109237
1649,0.5962854385
1650,0.5865102291
1651,0.6549364089
1652,0.6353860855
1653,0.5669599056
1654,0.5474095821
1655,0.5083088874
1656,0.5865102291
1657,0.5767350673
1658,0.5180840492
1659,0.4496578693
1660,0.4398827075
1661,0.4203323364
1662,0.5278592109
1663,0.5278592109
1664,0.5083088874
1665,0.5376344203
1666,0.4789833545
1667,0.4887585639
1668,0.4985337257
1669,0.4594330310
1670,0.4105571746
1671,0.4692081928
1672,0.4887585639
1673,0.4496578693
1674,0.4398827075
1675,0.3910068321
1676,0.3616813421
1677,0.3519061565
1678,0.3812316703
1679,0.4301075458
1680,0.4301075458
1681,0.4203323364
1682,0.3714565038
1683,0.4203323364
1684,0.4887585639
1685,0.4203323364
1686,0.3812316703
1687,0.3616813421
1688,0.3812316703
1689,0.3714565038
1690,0.3323558330
1691,0.3519061565
1692,0.3714565038
1693,0.3714565038
1694,0.3616813421
1695,0.3519061565
1696,0.3812316703
1697,0.3421309947
1698,0.3225806236
1699,0.3323558330
1700,0.3323558330
1701,0.3128054618
1702,0.2737047910
1703,0.2346040964
1704,0.2541544437
1705,0.2737047910
1706,0.2932551193
1707,0.2737047910
1708,0.2834799575
1709,0.3128054618
1710,0.2834799575
1711,0.2639296054
1712,0.2346040964
1713,0.2052785873
1714,0.1759530782
1715,0.1564027309
1716,0.1759530782
1717,0.1759530782
1718,0.1564027309
1719,0.1466275596
1720,0.1368523955
1721,0.1368523955
1722,0.1270772218
1723,0.1368523955
1724,0.1270772218
1725,0.1955034160
1726,0.2248289346
1727,0.2150537729
1728,0.2052785873
1729,0.2346040964
1730,0.2248289346
1731,0.2443792819
1732,0.2541544437
1733,0.2248289346
1734,0.2150537729
1735,0.2248289346
1736,0.1955034160
1737,0.2150537729
1738,0.1955034160
1739,0.2052785873
1740,0.2443792819
1741,0.2150537729
1742,0.2443792819
1743,0.2248289346
1744,0.2150537729
1745,0.1759530782
1746,0.1857282543
1747,0.2052785873
1748,0.1857282543
1749,0.1955034160
1750,0.1661779165
1751,0.1661779165
1752,0.1564027309
1753,0.1270772218
1754,0.1368523955
1755,0.1661779165
1756,0.1564027309
1757,0.1661779165
1758,0.1661779165
1759,0.1857282543
1760,0.1857282543
1761,0.1955034160
1762,0.1955034160
1763,0.1759530782
1764,0.1661779165
1765,0.1564027309
1766,0.1466275596
1767,0.1368523955
1768,0.1270772218
1769,0.1173020482
1770,0.1173020482
1771,0.1173020482
1772,0.1270772218
1773,0.1270772218
1774,0.1173020482
1775,0.1173020482
1776,0.1075268864
1777,0.1075268864
1778,0.1270772218
1779,0.1173020482
1780,0.0977517032
1781,0.1173020482
1782,0.1270772218
1783,0.1270772218
1784,0.1368523955
1785,0.1270772218
1786,0.1270772218
1787,0.1270772218
1788,0.1270772218
1789,0.1270772218
1790,0.1466275596
1791,0.1564027309
1792,0.1368523955
1793,0.1075268864
1794,0.1075268864
1795,0.1368523955
1796,0.1368523955
1797,0.1466275596
1798,0.1466275596
1799,0.1466275596
1800,0.1466275596
1801,0.1857282543
1802,0.1857282543
1803,0.2052785873
1804,0.2150537729
1805,0.2150537729
1806,0.1857282543
1807,0.1857282543
1808,0.1857282543
1809,0.1955034160
1810,0.2150537729
1811,0.2346040964
1812,0.2150537729
1813,0.1955034160
1814,0.2052785873
1815,0.1857282543
1816,0.1661779165
1817,0.1368523955
1818,0.1368523955
1819,0.1270772218
1820,0.1173020482
1821,0.1466275596
1822,0.1368523955
1823,0.1173020482
1824,0.1368523955
1825,0.1466275596
1826,0.1270772218
1827,0.1075268864
1828,0.1173020482
1829,0.1270772218
1830,0.1270772218
1831,0.1173020482
1832,0.1173020482
1833,0.1173020482
1834,0.1173020482
1835,0.0977517032
1836,0.1075268864
1837,0.1075268864
1838,0.0977517032
1839,0.0977517032
1840,0.1075268864
1841,0.1075268864
1842,0.1075268864
1843,0.0977517032
1844,0.0879765415
1845,0.0879765415
1846,0.0977517032
1847,0.1173020482
1848,0.1075268864
1849,0.0879765415
1850,0.1075268864
1851,0.0977517032
1852,0.0879765415
1853,0.1075268864
1854,0.1075268864
1855,0.1173020482
1856,0.0977517032
1857,0.0782013654
1858,0.0782013654
1859,0.0879765415
1860,0.0684261989
1861,0.0586510229
1862,0.0586510229
1863,0.0684261989
1864,0.0782013654
1865,0.0586510229
1866,0.0488758516
1867,0.0391006832
1868,0.0293255119
1869,0.0293255119
1870,0.0488758516
1871,0.0488758516
1872,0.0391006832
1873,0.0293255119
1874,0.0293255119
1875,0.0195503416
1876,0.0293255119
1877,0.0195503416
1878,0.0097751703
1879,0.0195503416
1880,0.0195503416
1881,0.0195503416
1882,0.0195503416
1883,0.0195503416
1884,0.0195503416
1885,0.0195503416
1886,0.0488758516
1887,0.0684261989
1888,0.0879765415
1889,0.0977517032
1890,0.1075268864
1891,0.1270772218
1892,0.1661779165
1893,0.1857282543
1894,0.1661779165
1895,0.2834799575
1896,0.3812316703
1897,0.4496578693
1898,0.4692081928
1899,0.5278592109
1900,0.5278592109
1901,0.5669599056
1902,0.6940371513
1903,0.6940371513
1904,0.7917888641
1905,0.8895405769
1906,0.9286412239
1907,0.8602150917
1908,0.9384163856
1909,0.9775171279
1910,1.1241446733
1911,1.1632453203
1912,1.2121212482
1913,1.2805473804
1914,1.1730204820
1915,1.4076246261
1916,1.5835777282
1917,1.5053763389
1918,1.4369501113
1919,1.5151515007
1920,1.5640273094
1921,1.8475073814
1922,1.9061583518
1923,1.9941349029
1924,2.3558161258
1925,2.1896383762
1926,1.9452590942
1927,1.6520038604
1928,1.5347018241
1929,1.4076246261
1930,1.3098728656
1931,1.3685239553
1932,1.4956011772
1933,1.3782991170
1934,1.7302052974
1935,2.0527858734
1936,1.8475073814
1937,1.7008798122
1938,1.4467253684
1939,1.2609970569
1940,1.1143695116
1941,1.0459432601
1942,0.9970674514
1943,0.9579667091
1944,0.9775171279
1945,0.8993157386
1946,0.8699902534
1947,0.9286412239
1948,0.7917888641
1949,0.7135874748
1950,0.6744868278
1951,0.6647116661
1952,0.5767350673
1953,0.5571847438
1954,0.5962854385
1955,0.5962854385
1956,0.5180840492
1957,0.4887585639
1958,0.4301075458
1959,0.4398827075
1960,0.4692081928
1961,0.4692081928
1962,0.5376344203
1963,0.5083088874
1964,0.5083088874
1965,0.5278592109
1966,0.5669599056
1967,0.5669599056
1968,0.5474095821
1969,0.5474095821
1970,0.5865102291
1971,0.6158357620
1972,0.6158357620
1973,0.6451612472
1974,0.6451612472
1975,0.6353860855
1976,0.8113391876
1977,0.9188660621
1978,0.8015640258
1979,0.8015640258
1980,0.6647116661
1981,0.7331378459
1982,0.7526881694
1983,0.7429130077
1984,0.7331378459
1985,0.8015640258
1986,0.7624633312
1987,0.8113391876
1988,0.8308895111
1989,0.8699902534
1990,0.7722384929
1991,0.6744868278
1992,0.6744868278
1993,0.5865102291
1994,0.5571847438
1995,0.5083088874
1996,0.5571847438
1997,0.5376344203
1998,0.4789833545
1999,0.5571847438
2000,0.5962854385
2001,1.8475073814
2002,1.4858260154
2003,1.1827956390
2004,0.9579667091
2005,0.7624633312
2006,0.6060606002
2007,0.4594330310
2008,0.4007820129
2009,0.3519061565
2010,0.2932551193
2011,0.2248289346
2012,0.1955034160
2013,0.1564027309
2014,0.1173020482
2015,0.1270772218
2016,0.1368523955
2017,0.1270772218
2018,0.1270772218
2019,0.1466275596
2020,0.1368523955
2021,0.1368523955
2022,0.1173020482
2023,0.0977517032
2024,0.1075268864
2025,0.1173020482
2026,0.1270772218
2027,0.1075268864
2028,0.0879765415
2029,0.0195503416
2030,0.0000000000
2031,0.0000000000
2032,0.0000000000
2033,0.0391006832
2034,0.0195503416
2035,0.0293255119
2036,0.0391006832
2037,0.0000000000
2038,0.0586510229
2039,0.0586510229
2040,0.0782013654
2041,0.0684261989
2042,0.0293255119
2043,0.0684261989
2044,0.0586510229
2045,0.0195503416
2046,0.0293255119
2047,0.0782013654
2048,0.0879765415
2049,0.0879765415
2050,0.1075268864
2051,0.0977517032
2052,0.0977517032
2053,0.1075268864
2054,0.0977517032
2055,0.1173020482
2056,0.1270772218
2057,0.1270772218
2058,0.1368523955
2059,0.1270772218
2060,0.1270772218
2061,0.1564027309
2062,0.1955034160
2063,0.2052785873
2064,0.1955034160
2065,0.2052785873
2066,0.2248289346
2067,0.2346040964
2068,0.2052785873
2069,0.1857282543
2070,0.2541544437
2071,0.2346040964
2072,0.2443792819
2073,0.2346040964
2074,0.2541544437
2075,0.2639296054
2076,0.2639296054
2077,0.2834799575
2078,0.3030303001
2079,0.2834799575
2080,0.2932551193
2081,0.2737047910
2082,0.2834799575
2083,0.2932551193
2084,0.3030303001
2085,0.2834799575
2086,0.2834799575
2087,0.2639296054
2088,0.2932551193
2089,0.3030303001
2090,0.3030303001
2091,0.3128054618
2092,0.3225806236
2093,0.3421309947
2094,0.3323558330
2095,0.3225806236
2096,0.3128054618
2097,0.3128054618
2098,0.3616813421
2099,0.3910068321
2100,0.4203323364
2101,0.4105571746
2102,0.4007820129
2103,0.4105571746
2104,0.4203323364
2105,0.4692081928
2106,0.4692081928
2107,0.4301075458
2108,0.4301075458
2109,0.4301075458
2110,0.4203323364
2111,0.4105571746
2112,0.4203323364
2113,0.5180840492
2114,0.5865102291
2115,0.5571847438
2116,0.6060606002
2117,0.5571847438
2118,0.5376344203
2119,0.4985337257
2120,0.4496578693
2121,0.4105571746
2122,0.3812316703
2123,0.4105571746
2124,0.4496578693
2125,0.4496578693
2126,0.4496578693
2127,0.4985337257
2128,0.4692081928
2129,0.4105571746
2130,0.4007820129
2131,0.3812316703
2132,0.3519061565
2133,0.3128054618
2134,0.3519061565
2135,0.3128054618
2136,0.3030303001
2137,0.3128054618
2138,0.2737047910
2139,0.2737047910
2140,0.2639296054
2141,0.2443792819
2142,0.2346040964
2143,0.2150537729
2144,0.2443792819
2145,0.2541544437
2146,0.2639296054
2147,0.2834799575
2148,0.3421309947
2149,0.3225806236
2150,0.3030303001
2151,0.3225806236
2152,0.3128054618
2153,0.2932551193
2154,0.3128054618
2155,0.3421309947
2156,0.3225806236
2157,0.3225806236
2158,0.3421309947
2159,0.3519061565
2160,0.3323558330
2161,0.3421309947
2162,0.3812316703
2163,0.4007820129
2164,0.4105571746
2165,0.4007820129
2166,0.4203323364
2167,0.4398827075
2168,0.3812316703
2169,0.3616813421
2170,0.3519061565
2171,0.3910068321
2172,0.3519061565
2173,0.3225806236
2174,0.2932551193
2175,0.2932551193
2176,0.2834799575
2177,0.2834799575
2178,0.2639296054
2179,0.3128054618
2180,0.3421309947
2181,0.3225806236
2182,0.3421309947
2183,0.3128054618
2184,0.3030303001
2185,0.3225806236
2186,0.3225806236
2187,0.3323558330
2188,0.3323558330
2189,0.3225806236
2190,0.3128054618
2191,0.3030303001
2192,0.2834799575
2193,0.2541544437
2194,0.2932551193
2195,0.2737047910
2196,0.2737047910
2197,0.2834799575
2198,0.2932551193
2199,0.2541544437
2200,0.2541544437
2201,0.2639296054
2202,0.2443792819
2203,0.2150537729
2204,0.2248289346
2205,0.2443792819
2206,0.2346040964
2207,0.2248289346
2208,0.2150537729
2209,0.2150537729
2210,0.2052785873
2211,0.2052785873
2212,0.2052785873
2213,0.2346040964
2214,0.2150537729
2215,0.2150537729
2216,0.2248289346
2217,0.2150537729
2218,0.2150537729
2219,0.2248289346
2220,0.2052785873
2221,0.2248289346
2222,0.2248289346
2223,0.2052785873
2224,0.1955034160
2225,0.2052785873
2226,0.1955034160
2227,0.1857282543
2228,0.2052785873
2229,0.2052785873
2230,0.1759530782
2231,0.1955034160
2232,0.1759530782
2233,0.1759530782
2234,0.1759530782
2235,0.1661779165
2236,0.1661779165
2237,0.1661779165
2238,0.1564027309
2239,0.1759530782
2240,0.1857282543
2241,0.1661779165
2242,0.1661779165
2243,0.2150537729
2244,0.2052785873
2245,0.2052785873
2246,0.1955034160
2247,0.1857282543
2248,0.1759530782
2249,0.1759530782
2250,0.1661779165
2251,0.1661779165
2252,0.1759530782
2253,0.1661779165
2254,0.1564027309
2255,0.1466275596
2256,0.1466275596
2257,0.1661779165
2258,0.1564027309
2259,0.1466275596
2260,0.1661779165
2261,0.1564027309
2262,0.1368523955
2263,0.1270772218
2264,0.1466275596
2265,0.1564027309
2266,0.1368523955
2267,0.1368523955
2268,0.1466275596
2269,0.1368523955
2270,0.1466275596
2271,0.1466275596
2272,0.1368523955
2273,0.1368523955
2274,0.1270772218
2275,0.1368523955
2276,0.1466275596
2277,0.1368523955
2278,0.1368523955
2279,0.1466275596
2280,0.1466275596
2281,0.1466275596
2282,0.1466275596
2283,0.1466275596
2284,0.1564027309
2285,0.1466275596
2286,0.1368523955
2287,0.1368523955
2288,0.1368523955
2289,0.1368523955
2290,0.1270772218
2291,0.1368523955
2292,0.1368523955
2293,0.1466275596
2294,0.1466275596
2295,0.1368523955
2296,0.1466275596
2297,0.1368523955
2298,0.1466275596
2299,0.1759530782
2300,0.1661779165
2301,0.1564027309
2302,0.1466275596
2303,0.1466275596
2304,0.1466275596
2305,0.1368523955
2306,0.1270772218
2307,0.1368523955
2308,0.1270772218
2309,0.1173020482
2310,0.1270772218
2311,0.1466275596
2312,0.1270772218
2313,0.1173020482
2314,0.1270772218
2315,0.1270772218
2316,0.1270772218
2317,0.1466275596
2318,0.1564027309
2319,0.1466275596
2320,0.1368523955
2321,0.1368523955
2322,0.1368523955
2323,0.1270772218
2324,0.1270772218
2325,0.1368523955
2326,0.1270772218
2327,0.1368523955
2328,0.1270772218
2329,0.1173020482
2330,0.1075268864
2331,0.1075268864
2332,0.1075268864
2333,0.1270772218
2334,0.1173020482
2335,0.1075268864
2336,0.1075268864
2337,0.1173020482
2338,0.1270772218
2339,0.1270772218
2340,0.1270772218
2341,0.1173020482
2342,0.1173020482
2343,0.1270772218
2344,0.1270772218
2345,0.1173020482
2346,0.1270772218
2347,0.1368523955
2348,0.1368523955
2349,0.1368523955
2350,0.1368523955
2351,0.1466275596
2352,0.1466275596
2353,0.1466275596
2354,0.1564027309
2355,0.1466275596
2356,0.1466275596
2357,0.1270772218
2358,0.1270772218
2359,0.1173020482
2360,0.1368523955
2361,0.1270772218
2362,0.1173020482
2363,0.1270772218
2364,0.1368523955
2365,0.1368523955
2366,0.1368523955
2367,0.1564027309
2368,0.1466275596
2369,0.1368523955
2370,0.1466275596
2371,0.1368523955
2372,0.1857282543
2373,0.1955034160
2374,0.1661779165
2375,0.1564027309
2376,0.1564027309
2377,0.1466275596
2378,0.1564027309
2379,0.1564027309
2380,0.1368523955
2381,0.1368523955
2382,0.1466275596
2383,0.1564027309
2384,0.1466275596
2385,0.1564027309
2386,0.1661779165
2387,0.1466275596
2388,0.1661779165
2389,0.1661779165
2390,0.1564027309
2391,0.1661779165
2392,0.1564027309
2393,0.1466275596
2394,0.1661779165
2395,0.1564027309
2396,0.1564027309
2397,0.1564027309
2398,0.1466275596
2399,0.1368523955
2400,0.1368523955
2401,0.1466275596
2402,0.1368523955
2403,0.1564027309
2404,0.1661779165
2405,0.1661779165
2406,0.1661779165
2407,0.1466275596
2408,0.1368523955
2409,0.1564027309
2410,0.1466275596
2411,0.1466275596
2412,0.1564027309
2413,0.1466275596
2414,0.1368523955
2415,0.1270772218
2416,0.1368523955
2417,0.1270772218
2418,0.1270772218
2419,0.1270772218
2420,0.1368523955
2421,0.1368523955
2422,0.1368523955
2423,0.1270772218
2424,0.1270772218
2425,0.1270772218
2426,0.1270772218
2427,0.1270772218
2428,0.1368523955
2429,0.1270772218
2430,0.1368523955
2431,0.1270772218
2432,0.1173020482
2433,0.1466275596
2434,0.1466275596
2435,0.1466275596
2436,0.1466275596
2437,0.1466275596
2438,0.1368523955
2439,0.1368523955
2440,0.1368523955
2441,0.1270772218
2442,0.1564027309
2443,0.1564027309
2444,0.1564027309
2445,0.1466275596
2446,0.1564027309
2447,0.1759530782
2448,0.1661779165
2449,0.1661779165
2450,0.1759530782
2451,0.1466275596
2452,0.1466275596
2453,0.1466275596
2454,0.1270772218
2455,0.1368523955
2456,0.1466275596
2457,0.1564027309
2458,0.1466275596
2459,0.1466275596
2460,0.1466275596
2461,0.1368523955
2462,0.1466275596
2463,0.1564027309
2464,0.1564027309
2465,0.1564027309
2466,0.1564027309
2467,0.1466275596
2468,0.1564027309
2469,0.1564027309
2470,0.1857282543
2471,0.2052785873
2472,0.2150537729
2473,0.2150537729
2474,0.2346040964
2475,0.2150537729
2476,0.2541544437
2477,0.2932551193
2478,0.3128054618
2479,0.3323558330
2480,0.3421309947
2481,0.3519061565
2482,0.3421309947
2483,0.3323558330
2484,0.3421309947
2485,0.3421309947
2486,0.3421309947
2487,0.3421309947
2488,0.4105571746
2489,0.3812316703
2490,0.3910068321
2491,0.3812316703
2492,0.4594330310
2493,0.5180840492
2494,0.5083088874
2495,0.5669599056
2496,0.5962854385
2497,0.5865102291
2498,0.5278592109
2499,0.5571847438
2500,0.6256109237
2501,0.5767350673
2502,0.5376344203
2503,0.5669599056
2504,0.5962854385
2505,0.5767350673
2506,0.5376344203
2507,0.4887585639
2508,0.5180840492
2509,0.5767350673
2510,0.7038123130
2511,0.7135874748
2512,0.6451612472
2513,0.7233626842
2514,0.8015640258
2515,0.7429130077
2516,0.7135874748
2517,0.6940371513
2518,0.6647116661
2519,0.7429130077
2520,0.8113391876
2521,0.8504399299
2522,0.9481915473
2523,0.8602150917
2524,0.8308895111
2525,0.7526881694
2526,0.6940371513
2527,0.6940371513
2528,0.6940371513
2529,0.6353860855
2530,0.6842619895
2531,0.7917888641
2532,0.6940371513
2533,0.6940371513
2534,0.6353860855
2535,0.5474095821
2536,0.4985337257
2537,0.4398827075
2538,0.4105571746
2539,0.3910068321
2540,0.3519061565
2541,0.3030303001
2542,0.2834799575
2543,0.2541544437
2544,0.2248289346
2545,0.2052785873
2546,0.2052785873
2547,0.2150537729
2548,0.2052785873
2549,0.2150537729
2550,0.2150537729
2551,0.2248289346
2552,0.2150537729
2553,0.2150537729
2554,0.2150537729
2555,0.2052785873
2556,0.2248289346
2557,0.2150537729
2558,0.2541544437
2559,0.2639296054
2560,0.2443792819
2561,0.2541544437
2562,0.2443792819
2563,0.2541544437
2564,0.2834799575
2565,0.2834799575
2566,0.2737047910
2567,0.2737047910
2568,0.2932551193
2569,0.2834799575
2570,0.2443792819
2571,0.2834799575
2572,0.2737047910
2573,0.2541544437
2574,0.2346040964
2575,0.2248289346
2576,0.2346040964
2577,0.2541544437
2578,0.2639296054
2579,0.2443792819
2580,0.2248289346
2581,0.2248289346
2582,0.2443792819
2583,0.2346040964
2584,0.2834799575
2585,0.2541544437
2586,0.2639296054
2587,0.2639296054
2588,0.2737047910
2589,0.2737047910
2590,0.2639296054
2591,0.2639296054
2592,0.2639296054
2593,0.2639296054
2594,0.2443792819
2595,0.2346040964
2596,0.2737047910
2597,0.2737047910
2598,0.2639296054
2599,0.2346040964
2600,0.2346040964
2601,0.2443792819
2602,0.2443792819
2603,0.2248289346
2604,0.2443792819
2605,0.2248289346
2606,0.2346040964
2607,0.2346040964
2608,0.2346040964
2609,0.2248289346
2610,0.1955034160
2611,0.2248289346
2612,0.2150537729
2613,0.2248289346
2614,0.2346040964
2615,0.2150537729
2616,0.2346040964
2617,0.2248289346
2618,0.1955034160
2619,0.1955034160
2620,0.1857282543
2621,0.1857282543
2622,0.1955034160
2623,0.1857282543
2624,0.1857282543
2625,0.1955034160
2626,0.2150537729
2627,0.2150537729
2628,0.2150537729
2629,0.1857282543
2630,0.1857282543
2631,0.1857282543
2632,0.1759530782
2633,0.1564027309
2634,0.1466275596
2635,0.1368523955
2636,0.1270772218
2637,0.1368523955
2638,0.1368523955
2639,0.1368523955
2640,0.1466275596
2641,0.1270772218
2642,0.1368523955
2643,0.1368523955
2644,0.1466275596
2645,0.1466275596
2646,0.1270772218
2647,0.1270772218
2648,0.1368523955
2649,0.1466275596
2650,0.1466275596
2651,0.1466275596
2652,0.1466275596
2653,0.1368523955
2654,0.1466275596
2655,0.1564027309
2656,0.1368523955
2657,0.1368523955
2658,0.1368523955
2659,0.1173020482
2660,0.1270772218
2661,0.1466275596
2662,0.1466275596
2663,0.1368523955
2664,0.1368523955
2665,0.1270772218
2666,0.1173020482
2667,0.1173020482
2668,0.1173020482
2669,0.1466275596
2670,0.1466275596
2671,0.1466275596
2672,0.1466275596
2673,0.1759530782
2674,0.1759530782
2675,0.1759530782
2676,0.1564027309
2677,0.1466275596
2678,0.1564027309
2679,0.1564027309
2680,0.1466275596
2681,0.1564027309
2682,0.1368523955
2683,0.1466275596
2684,0.1466275596
2685,0.1466275596
2686,0.1466275596
2687,0.1368523955
2688,0.1270772218
2689,0.1466275596
2690,0.1466275596
2691,0.1466275596
2692,0.1368523955
2693,0.1270772218
2694,0.1368523955
2695,0.1466275596
2696,0.1368523955
2697,0.1270772218
2698,0.1270772218
2699,0.1270772218
2700,0.1466275596
2701,0.1368523955
2702,0.1466275596
2703,0.1368523955
2704,0.1368523955
2705,0.1564027309
2706,0.1661779165
2707,0.1564027309
2708,0.1564027309
2709,0.1368523955
2710,0.1466275596
2711,0.1466275596
2712,0.1564027309
2713,0.1564027309
2714,0.1661779165
2715,0.1564027309
2716,0.1466275596
2717,0.1466275596
2718,0.1368523955
2719,0.1173020482
2720,0.1270772218
2721,0.1466275596
2722,0.1466275596
2723,0.1368523955
2724,0.1759530782
2725,0.1661779165
2726,0.1564027309
2727,0.1661779165
2728,0.1661779165
2729,0.1466275596
2730,0.1466275596
2731,0.1466275596
2732,0.1466275596
2733,0.1368523955
2734,0.1270772218
2735,0.1368523955
2736,0.1270772218
2737,0.1368523955
2738,0.1368523955
2739,0.1466275596
2740,0.1368523955
2741,0.1368523955
2742,0.1466275596
2743,0.1368523955
2744,0.1368523955
2745,0.1368523955
2746,0.1270772218
2747,0.1270772218
2748,0.1270772218
2749,0.1270772218
2750,0.1270772218
2751,0.1270772218
2752,0.1173020482
2753,0.1368523955
2754,0.1368523955
2755,0.1270772218
2756,0.1173020482
2757,0.1368523955
2758,0.1270772218
2759,0.1270772218
2760,0.1075268864
2761,0.1270772218
2762,0.1368523955
2763,0.1368523955
2764,0.1173020482
2765,0.1173020482
2766,0.1075268864
2767,0.1075268864
2768,0.1173020482
2769,0.1270772218
2770,0.1466275596
2771,0.1368523955
2772,0.1368523955
2773,0.1368523955
2774,0.1270772218
2775,0.1368523955
2776,0.1270772218
2777,0.1173020482
2778,0.1270772218
2779,0.1173020482
2780,0.1075268864
2781,0.0977517032
2782,0.0879765415
2783,0.0879765415
2784,0.0977517032
2785,0.1075268864
2786,0.1075268864
2787,0.1173020482
2788,0.1075268864
2789,0.0977517032
2790,0.0977517032
2791,0.1075268864
2792,0.1075268864
2793,0.1075268864
2794,0.1173020482
2795,0.0977517032
2796,0.0977517032
2797,0.1173020482
2798,0.1173020482
2799,0.1270772218
2800,0.1368523955
2801,0.1368523955
2802,0.1368523955
2803,0.1368523955
2804,0.1466275596
2805,0.1466275596
2806,0.1368523955
2807,0.1368523955
2808,0.1368523955
2809,0.1270772218
2810,0.1270772218
2811,0.1173020482
2812,0.1270772218
2813,0.1270772218
2814,0.1466275596
2815,0.1564027309
2816,0.1466275596
2817,0.1466275596
2818,0.1368523955
2819,0.1270772218
2820,0.1270772218
2821,0.1368523955
2822,0.1270772218
2823,0.1270772218
2824,0.1368523955
2825,0.1270772218
2826,0.1173020482
2827,0.1173020482
2828,0.1075268864
2829,0.1270772218
2830,0.1173020482
2831,0.1075268864
2832,0.1270772218
2833,0.1270772218
2834,0.1270772218
2835,0.1173020482
2836,0.1270772218
2837,0.1466275596
2838,0.1368523955
2839,0.1368523955
2840,0.1368523955
2841,0.1270772218
2842,0.1368523955
2843,0.1564027309
2844,0.1466275596
2845,0.1466275596
2846,0.1466275596
2847,0.1368523955
2848,0.1368523955
2849,0.1368523955
2850,0.1466275596
2851,0.1466275596
2852,0.1466275596
2853,0.1759530782
2854,0.1955034160
2855,0.2052785873
2856,0.2443792819
2857,0.2248289346
2858,0.2346040964
2859,0.2248289346
2860,0.1955034160
2861,0.2052785873
2862,0.2150537729
2863,0.2150537729
2864,0.2248289346
2865,0.2052785873
2866,0.2150537729
2867,0.2248289346
2868,0.2248289346
2869,0.2541544437
2870,0.2541544437
2871,0.2443792819
2872,0.2639296054
2873,0.2639296054
2874,0.3030303001
2875,0.3128054618
2876,0.3225806236
2877,0.3519061565
2878,0.3323558330
2879,0.3323558330
2880,0.3128054618
2881,0.2932551193
2882,0.3030303001
2883,0.3030303001
2884,0.3225806236
2885,0.3616813421
2886,0.3323558330
2887,0.3225806236
2888,0.3128054618
2889,0.3128054618
2890,0.3128054618
2891,0.3714565038
2892,0.3616813421
2893,0.3616813421
2894,0.4203323364
2895,0.4594330310
2896,0.4105571746
2897,0.4594330310
2898,0.5278592109
2899,0.4985337257
2900,0.4887585639
2901,0.5083088874
2902,0.5474095821
2903,0.6842619895
2904,0.6940371513
2905,0.6647116661
2906,0.6647116661
2907,0.6549364089
2908,0.6451612472
2909,0.6158357620
2910,0.5865102291
2911,0.5767350673
2912,0.6744868278
2913,0.7429130077
2914,0.6647116661
2915,0.7233626842
2916,0.7135874748
2917,0.7233626842
2918,0.6842619895
2919,0.5865102291
2920,0.5474095821
2921,0.4789833545
2922,0.4203323364
2923,0.4007820129
2924,0.3714565038
2925,0.3323558330
2926,0.3225806236
2927,0.3323558330
2928,0.3128054618
2929,0.3225806236
2930,0.2737047910
2931,0.2541544437
2932,0.2443792819
2933,0.2346040964
2934,0.2346040964
2935,0.2150537729
2936,0.1955034160
2937,0.1857282543
2938,0.1759530782
2939,0.1564027309
2940,0.1759530782
2941,0.1759530782
2942,0.1759530782
2943,0.1759530782
2944,0.1759530782
2945,0.1759530782
2946,0.1857282543
2947,0.2150537729
2948,0.2150537729
2949,0.2346040964
2950,0.2639296054
2951,0.3225806236
2952,0.3519061565
2953,0.3225806236
2954,0.3421309947
2955,0.3812316703
2956,0.4007820129
2957,0.3519061565
2958,0.3616813421
2959,0.3812316703
2960,0.3421309947
2961,0.3225806236
2962,0.3421309947
2963,0.3323558330
2964,0.3128054618
2965,0.3128054618
2966,0.3323558330
2967,0.2834799575
2968,0.2737047910
2969,0.2932551193
2970,0.3030303001
2971,0.3030303001
2972,0.2834799575
2973,0.2737047910
2974,0.2639296054
2975,0.2639296054
2976,0.2737047910
2977,0.2443792819
2978,0.2248289346
2979,0.2248289346
2980,0.2443792819
2981,0.2541544437
2982,0.2346040964
2983,0.2737047910
2984,0.2541544437
2985,0.2639296054
2986,0.2932551193
2987,0.2737047910
2988,0.2541544437
2989,0.2639296054
2990,0.2737047910
2991,0.2443792819
2992,0.2346040964
2993,0.2639296054
2994,0.2346040964
2995,0.2248289346
2996,0.2150537729
2997,0.2248289346
2998,0.2248289346
2999,0.2150537729
3000,0.2932551193
3001,2.9032258987
3002,2.3264906406
3003,1.8670577049
3004,1.5347018241
3005,1.2414467334
3006,1.0263929367
3007,0.8504399299
3008,0.6940371513
3009,0.5767350673
3010,0.4887585639
3011,0.4594330310
3012,0.3910068321
3013,0.3421309947
3014,0.3030303001
3015,0.2834799575
3016,0.2639296054
3017,0.2541544437
3018,0.2248289346
3019,0.2443792819
3020,0.2346040964
3021,0.2248289346
3022,0.2052785873
3023,0.2150537729
3024,0.2052785873
3025,0.1955034160
3026,0.1857282543
3027,0.2150537729
3028,0.1955034160
3029,0.1759530782
3030,0.1857282543
3031,0.1955034160
3032,0.1857282543
3033,0.2150537729
3034,0.2639296054
3035,0.2052785873
3036,0.2443792819
3037,0.2541544437
3038,0.2443792819
3039,0.2248289346
3040,0.2248289346
3041,0.2150537729
3042,0.2052785873
3043,0.1955034160
3044,0.1955034160
3045,0.1759530782
3046,0.1661779165
3047,0.1661779165
3048,0.1759530782
3049,0.2052785873
3050,0.2052785873
3051,0.2248289346
3052,0.2248289346
3053,0.2834799575
3054,0.2932551193
3055,0.2834799575
3056,0.3323558330
3057,0.3225806236
3058,0.3128054618
3059,0.3128054618
3060,0.3030303001
3061,0.2932551193
3062,0.3421309947
3063,0.3519061565
3064,0.3421309947
3065,0.3714565038
3066,0.3910068321
3067,0.4496578693
3068,0.4398827075
3069,0.5083088874
3070,0.5278592109
3071,0.5180840492
3072,0.4789833545
3073,0.4887585639
3074,0.5669599056
3075,0.5767350673
3076,0.5571847438
3077,0.5865102291
3078,0.6744868278
3079,0.6353860855
3080,0.6549364089
3081,0.6060606002
3082,0.6744868278
3083,0.7331378459
3084,0.6842619895
3085,0.6647116661
3086,0.6744868278
3087,0.7722384929
3088,0.7135874748
3089,0.6549364089
3090,0.6744868278
3091,0.7624633312
3092,0.7526881694
3093,0.7526881694
3094,0.6842619895
3095,0.6647116661
3096,0.7331378459
3097,0.7429130077
3098,0.7624633312
3099,0.9579667091
3100,0.9775171279
3101,0.9188660621
3102,0.9677418708
3103,0.9677418708
3104,0.9286412239
3105,0.9286412239
3106,0.9188660621
3107,0.8504399299
3108,1.0459432601
3109,0.9384163856
3110,0.8993157386
3111,0.9677418708
3112,0.8797654151
3113,0.9090909004
3114,0.8895405769
3115,0.8308895111
3116,0.7820136547
3117,0.8797654151
3118,0.8504399299
3119,0.8113391876
3120,0.8699902534
3121,0.9384163856
3122,0.8504399299
3123,0.7820136547
3124,0.7526881694
3125,0.7429130077
3126,0.6451612472
3127,0.5962854385
3128,0.5669599056
3129,0.5180840492
3130,0.5278592109
3131,0.5571847438
3132,0.4887585639
3133,0.4398827075
3134,0.4203323364
3135,0.4301075458
3136,0.3616813421
3137,0.3225806236
3138,0.3225806236
3139,0.2737047910
3140,0.2639296054
3141,0.2541544437
3142,0.2541544437
3143,0.2443792819
3144,0.2150537729
3145,0.2052785873
3146,0.2639296054
3147,0.2834799575
3148,0.2541544437
3149,0.2248289346
3150,0.2248289346
3151,0.2346040964
3152,0.2248289346
3153,0.2052785873
3154,0.2150537729
3155,0.2932551193
3156,0.2639296054
3157,0.2932551193
3158,0.3128054618
3159,0.3323558330
3160,0.3030303001
3161,0.2737047910
3162,0.2932551193
3163,0.3030303001
3164,0.3225806236
3165,0.3030303001
3166,0.2932551193
3167,0.3030303001
3168,0.3030303001
3169,0.2834799575
3170,0.2834799575
3171,0.2932551193
3172,0.3030303001
3173,0.2834799575
3174,0.2737047910
3175,0.2834799575
3176,0.3030303001
3177,0.3030303001
3178,0.3225806236
3179,0.3323558330
3180,0.3323558330
3181,0.3421309947
3182,0.3225806236
3183,0.3030303001
3184,0.3225806236
3185,0.3225806236
3186,0.3030303001
3187,0.3519061565
3188,0.3421309947
3189,0.3128054618
3190,0.3323558330
3191,0.3225806236
3192,0.3714565038
3193,0.3910068321
3194,0.3421309947
3195,0.3519061565
3196,0.3616813421
3197,0.3421309947
3198,0.3616813421
3199,0.3519061565
3200,0.3519061565
3201,0.3323558330
3202,0.3225806236
3203,0.3421309947
3204,0.3519061565
3205,0.3323558330
3206,0.3421309947
3207,0.3714565038
3208,0.3225806236
3209,0.3519061565
3210,0.3323558330
3211,0.3225806236
3212,0.3323558330
3213,0.3128054618
3214,0.3030303001
3215,0.3519061565
3216,0.3421309947
3217,0.3128054618
3218,0.3030303001
3219,0.2737047910
3220,0.2737047910
3221,0.2737047910
3222,0.2834799575
3223,0.2834799575
3224,0.2639296054
3225,0.2737047910
3226,0.3128054618
3227,0.3128054618
3228,0.3030303001
3229,0.3421309947
3230,0.3616813421
3231,0.3323558330
3232,0.3323558330
3233,0.3225806236
3234,0.3030303001
3235,0.3225806236
3236,0.3030303001
3237,0.2639296054
3238,0.2346040964
3239,0.2541544437
3240,0.2639296054
3241,0.2932551193
3242,0.2834799575
3243,0.2639296054
3244,0.2541544437
3245,0.2443792819
3246,0.2346040964
3247,0.2248289346
3248,0.2248289346
3249,0.2346040964
3250,0.2150537729
3251,0.2150537729
3252,0.2443792819
3253,0.2639296054
3254,0.2541544437
3255,0.2737047910
3256,0.2639296054
3257,0.2639296054
3258,0.2834799575
3259,0.2737047910
3260,0.2639296054
3261,0.2737047910
3262,0.2737047910
3263,0.2737047910
3264,0.2737047910
3265,0.2737047910
3266,0.2443792819
3267,0.2541544437
3268,0.2541544437
3269,0.2541544437
3270,0.2443792819
3271,0.2737047910
3272,0.3128054618
3273,0.2834799575
3274,0.2834799575
3275,0.2737047910
3276,0.2541544437
3277,0.3225806236
3278,0.3323558330
3279,0.3421309947
3280,0.3225806236
3281,0.3128054618
3282,0.3030303001
3283,0.3030303001
3284,0.2834799575
3285,0.2737047910
3286,0.2932551193
3287,0.2443792819
3288,0.2346040964
3289,0.2248289346
3290,0.2248289346
3291,0.2541544437
3292,0.2834799575
3293,0.2639296054
3294,0.2443792819
3295,0.2541544437
3296,0.2443792819
3297,0.2346040964
3298,0.2248289346
3299,0.2150537729
3300,0.2150537729
3301,0.2150537729
3302,0.2052785873
3303,0.1955034160
3304,0.1955034160
3305,0.2248289346
3306,0.2248289346
3307,0.2737047910
3308,0.2932551193
3309,0.2834799575
3310,0.2737047910
3311,0.2541544437
3312,0.2248289346
3313,0.2346040964
3314,0.2443792819
3315,0.2248289346
3316,0.2443792819
3317,0.2443792819
3318,0.2541544437
3319,0.2346040964
3320,0.2248289346
3321,0.2248289346
3322,0.2443792819
3323,0.2248289346
3324,0.2248289346
3325,0.2248289346
3326,0.2052785873
3327,0.2150537729
3328,0.2346040964
3329,0.2346040964
3330,0.2150537729
3331,0.2052785873
3332,0.1955034160
3333,0.2052785873
3334,0.1955034160
3335,0.2150537729
3336,0.2052785873
3337,0.2052785873
3338,0.2150537729
3339,0.2248289346
3340,0.2248289346
3341,0.2150537729
3342,0.2052785873
3343,0.2052785873
3344,0.2052785873
3345,0.2150537729
3346,0.2052785873
3347,0.2150537729
3348,0.2346040964
3349,0.2248289346
3350,0.2248289346
3351,0.2443792819
3352,0.2346040964
3353,0.2150537729
3354,0.2150537729
3355,0.2248289346
3356,0.2150537729
3357,0.2052785873
3358,0.2150537729
3359,0.2248289346
3360,0.2052785873
3361,0.1955034160
3362,0.2052785873
3363,0.2052785873
3364,0.1857282543
3365,0.1857282543
3366,0.2052785873
3367,0.1955034160
3368,0.1857282543
3369,0.1955034160
3370,0.2052785873
3371,0.2150537729
3372,0.2052785873
3373,0.2052785873
3374,0.2150537729
3375,0.2248289346
3376,0.2248289346
3377,0.2150537729
3378,0.2052785873
3379,0.2150537729
3380,0.2248289346
3381,0.2346040964
3382,0.2541544437
3383,0.2443792819
3384,0.2541544437
3385,0.2443792819
3386,0.2541544437
3387,0.2346040964
3388,0.2346040964
3389,0.2346040964
3390,0.2443792819
3391,0.2346040964
3392,0.2052785873
3393,0.2052785873
3394,0.1955034160
3395,0.1857282543
3396,0.1857282543
3397,0.1955034160
3398,0.1955034160
3399,0.1955034160
3400,0.1955034160
3401,0.2150537729
3402,0.2052785873
3403,0.2150537729
3404,0.2248289346
3405,0.2052785873
3406,0.2150537729
3407,0.2052785873
3408,0.1955034160
3409,0.1857282543
3410,0.1661779165
3411,0.1661779165
3412,0.1759530782
3413,0.1857282543
3414,0.2150537729
3415,0.2150537729
3416,0.2248289346
3417,0.2248289346
3418,0.2541544437
3419,0.2150537729
3420,0.2248289346
3421,0.2150537729
3422,0.2248289346
3423,0.2052785873
3424,0.2052785873
3425,0.2150537729
3426,0.2052785873
3427,0.2150537729
3428,0.2052785873
3429,0.2052785873
3430,0.2052785873
3431,0.2150537729
3432,0.1955034160
3433,0.1857282543
3434,0.1857282543
3435,0.1759530782
3436,0.1857282543
3437,0.1759530782
3438,0.2052785873
3439,0.2052785873
3440,0.1857282543
3441,0.1857282543
3442,0.1955034160
3443,0.1857282543
3444,0.1857282543
3445,0.1759530782
3446,0.1759530782
3447,0.1857282543
3448,0.1857282543
3449,0.1955034160
3450,0.1857282543
3451,0.2052785873
3452,0.1857282543
3453,0.1857282543
3454,0.1857282543
3455,0.1857282543
3456,0.1759530782
3457,0.1857282543
3458,0.1759530782
3459,0.1759530782
3460,0.1857282543
3461,0.1955034160
3462,0.2248289346
3463,0.2443792819
3464,0.2248289346
3465,0.2346040964
3466,0.2737047910
3467,0.2639296054
3468,0.2834799575
3469,0.2639296054
3470,0.2834799575
3471,0.2932551193
3472,0.3323558330
3473,0.3323558330
3474,0.3421309947
3475,0.3714565038
3476,0.3519061565
3477,0.4105571746
3478,0.4203323364
3479,0.4398827075
3480,0.4301075458
3481,0.4594330310
3482,0.4789833545
3483,0.4692081928
3484,0.4789833545
3485,0.5180840492
3486,0.5767350673
3487,0.5767350673
3488,0.5180840492
3489,0.5180840492
3490,0.5669599056
3491,0.5669599056
3492,0.6060606002
3493,0.5865102291
3494,0.6256109237
3495,0.6353860855
3496,0.6451612472
3497,0.6940371513
3498,0.7331378459
3499,0.7526881694
3500,0.7429130077
3501,0.7331378459
3502,0.9090909004
3503,0.9481915473
3504,1.0263929367
3505,1.1827956390
3506,1.1241446733
3507,1.0654937028
3508,1.0850440216
3509,1.1827956390
3510,1.2805473804
3511,1.2316715717
3512,1.1632453203
3513,1.0752688646
3514,1.0557184219
3515,0.9579667091
3516,0.8797654151
3517,1.0263929367
3518,1.0459432601
3519,0.9970674514
3520,0.9677418708
3521,0.9188660621
3522,0.9872922897
3523,0.9286412239
3524,0.9188660621
3525,0.9775171279
3526,1.0752688646
3527,1.2707722187
3528,1.4662756919
3529,1.3782991170
3530,1.2023460865
3531,1.3587487936
3532,1.2218964099
3533,1.1925709247
3534,1.0654937028
3535,1.0850440216
3536,1.1436949968
3537,1.0654937028
3538,0.9872922897
3539,0.8602150917
3540,0.9384163856
3541,0.9481915473
3542,0.9188660621
3543,0.8308895111
3544,0.8308895111
3545,0.7820136547
3546,0.7526881694
3547,0.7331378459
3548,0.7038123130
3549,0.6744868278
3550,0.5865102291
3551,0.5571847438
3552,0.5669599056
3553,0.5083088874
3554,0.4594330310
3555,0.4007820129
3556,0.4203323364
3557,0.3519061565
3558,0.3519061565
3559,0.3128054618
3560,0.2932551193
3561,0.2737047910
3562,0.2443792819
3563,0.2737047910
3564,0.2639296054
3565,0.2737047910
3566,0.2541544437
3567,0.2346040964
3568,0.2443792819
3569,0.2248289346
3570,0.2150537729
3571,0.2150537729
3572,0.2443792819
3573,0.2443792819
3574,0.2443792819
3575,0.2248289346
3576,0.2346040964
3577,0.2541544437
3578,0.2346040964
3579,0.2346040964
3580,0.2346040964
3581,0.2248289346
3582,0.2150537729
3583,0.2052785873
3584,0.2052785873
3585,0.2052785873
3586,0.1955034160
3587,0.2052785873
3588,0.2248289346
3589,0.2541544437
3590,0.2443792819
3591,0.3030303001
3592,0.2834799575
3593,0.2737047910
3594,0.2932551193
3595,0.2834799575
3596,0.3225806236
3597,0.3323558330
3598,0.3519061565
3599,0.3421309947
3600,0.3421309947
3601,0.3714565038
3602,0.3519061565
3603,0.3910068321
3604,0.3519061565
3605,0.3519061565
3606,0.3323558330
3607,0.3323558330
3608,0.3910068321
3609,0.3519061565
3610,0.3519061565
3611,0.4594330310
3612,0.4301075458
3613,0.4105571746
3614,0.3714565038
3615,0.3910068321
3616,0.4105571746
3617,0.4398827075
3618,0.4105571746
3619,0.3812316703
3620,0.4007820129
3621,0.4007820129
3622,0.4007820129
3623,0.3616813421
3624,0.3128054618
3625,0.3030303001
3626,0.3128054618
3627,0.2932551193
3628,0.2932551193
3629,0.3714565038
3630,0.3225806236
3631,0.2932551193
3632,0.2932551193
3633,0.2834799575
3634,0.2443792819
3635,0.2443792819
3636,0.2346040964
3637,0.2737047910
3638,0.2639296054
3639,0.2541544437
3640,0.2346040964
3641,0.2541544437
3642,0.2639296054
3643,0.2541544437
3644,0.2541544437
3645,0.2737047910
3646,0.2541544437
3647,0.2541544437
3648,0.2443792819
3649,0.2443792819
3650,0.2346040964
3651,0.2346040964
3652,0.2541544437
3653,0.2639296054
3654,0.2541544437
3655,0.2248289346
3656,0.2052785873
3657,0.2248289346
3658,0.2346040964
3659,0.2052785873
3660,0.2052785873
3661,0.2541544437
3662,0.2737047910
3663,0.3030303001
3664,0.3323558330
3665,0.3519061565
3666,0.4105571746
3667,0.4301075458
3668,0.3616813421
3669,0.4301075458
3670,0.5083088874
3671,0.4594330310
3672,0.4398827075
3673,0.4789833545
3674,0.4985337257
3675,0.4594330310
3676,0.4105571746
3677,0.4887585639
3678,0.4887585639
3679,0.4985337257
3680,0.4594330310
3681,0.5278592109
3682,0.4887585639
3683,0.4789833545
3684,0.4496578693
3685,0.4105571746
3686,0.4301075458
3687,0.4398827075
3688,0.3812316703
3689,0.3519061565
3690,0.3910068321
3691,0.4398827075
3692,0.4105571746
3693,0.4105571746
3694,0.3910068321
3695,0.3519061565
3696,0.3421309947
3697,0.4398827075
3698,0.4203323364
3699,0.4496578693
3700,0.4301075458
3701,0.4007820129
3702,0.3616813421
3703,0.3421309947
3704,0.3519061565
3705,0.3616813421
3706,0.3616813421
3707,0.3519061565
3708,0.3421309947
3709,0.3225806236
3710,0.3030303001
3711,0.3616813421
3712,0.3519061565
3713,0.3519061565
3714,0.3519061565
3715,0.3225806236
3716,0.3616813421
3717,0.3812316703
3718,0.3323558330
3719,0.2737047910
3720,0.2834799575
3721,0.2541544437
3722,0.2639296054
3723,0.2541544437
3724,0.2443792819
3725,0.2737047910
3726,0.2639296054
3727,0.2932551193
3728,0.2834799575
3729,0.3030303001
3730,0.2834799575
3731,0.2834799575
3732,0.2834799575
3733,0.3421309947
3734,0.3225806236
3735,0.2932551193
3736,0.2932551193
3737,0.2737047910
3738,0.2834799575
3739,0.2737047910
3740,0.2541544437
3741,0.2346040964
3742,0.2346040964
3743,0.2248289346
3744,0.2541544437
3745,0.2150537729
3746,0.1857282543
3747,0.3128054618
3748,0.3030303001
3749,0.2443792819
3750,0.2443792819
3751,0.3030303001
3752,0.2737047910
3753,0.2737047910
3754,0.2639296054
3755,0.2639296054
3756,0.2346040964
3757,0.2834799575
3758,0.3030303001
3759,0.2639296054
3760,0.2639296054
3761,0.2737047910
3762,0.2443792819
3763,0.2346040964
3764,0.2737047910
3765,0.2639296054
3766,0.2737047910
3767,0.2834799575
3768,0.2541544437
3769,0.2737047910
3770,0.2639296054
3771,0.2541544437
3772,0.2346040964
3773,0.2248289346
3774,0.2346040964
3775,0.2248289346
3776,0.2150537729
3777,0.2932551193
3778,0.2639296054
3779,0.3714565038
3780,0.3421309947
3781,0.3225806236
3782,0.3030303001
3783,0.3030303001
3784,0.2834799575
3785,0.2834799575
3786,0.2932551193
3787,0.2834799575
3788,0.2737047910
3789,0.2834799575
3790,0.2737047910
3791,0.2737047910
3792,0.2541544437
3793,0.2639296054
3794,0.2443792819
3795,0.2346040964
3796,0.2150537729
3797,0.2346040964
3798,0.2150537729
3799,0.2248289346
3800,0.2248289346
3801,0.2443792819
3802,0.2248289346
3803,0.2346040964
3804,0.2443792819
3805,0.2541544437
3806,0.2346040964
3807,0.2346040964
3808,0.2346040964
3809,0.2150537729
3810,0.2150537729
3811,0.2248289346
3812,0.2639296054
3813,0.2541544437
3814,0.2639296054
3815,0.2346040964
3816,0.2052785873
3817,0.2639296054
3818,0.2541544437
3819,0.2639296054
3820,0.2834799575
3821,0.2834799575
3822,0.2932551193
3823,0.2737047910
3824,0.2541544437
3825,0.2346040964
3826,0.2443792819
3827,0.2639296054
3828,0.2443792819
3829,0.2541544437
3830,0.2834799575
3831,0.2541544437
3832,0.2541544437
3833,0.2541544437
3834,0.2737047910
3835,0.2932551193
3836,0.2737047910
3837,0.2737047910
3838,0.2541544437
3839,0.2541544437
3840,0.2443792819
3841,0.2541544437
3842,0.2639296054
3843,0.3225806236
3844,0.2932551193
3845,0.2737047910
3846,0.2639296054
3847,0.2932551193
3848,0.2932551193
3849,0.2639296054
3850,0.2541544437
3851,0.2443792819
3852,0.2541544437
3853,0.2541544437
3854,0.2932551193
3855,0.2834799575
3856,0.3030303001
3857,0.2834799575
3858,0.2834799575
3859,0.2932551193
3860,0.3030303001
3861,0.3030303001
3862,0.2932551193
3863,0.2834799575
3864,0.2834799575
3865,0.2737047910
3866,0.2834799575
3867,0.2932551193
3868,0.3030303001
3869,0.3128054618
3870,0.3323558330
3871,0.3714565038
3872,0.3812316703
3873,0.3421309947
3874,0.3714565038
3875,0.3812316703
3876,0.4496578693
3877,0.4789833545
3878,0.4692081928
3879,0.5083088874
3880,0.5180840492
3881,0.4887585639
3882,0.6353860855
3883,0.5767350673
3884,0.5474095821
3885,0.5278592109
3886,0.6158357620
3887,0.5767350673
3888,0.5669599056
3889,0.5669599056
3890,0.5865102291
3891,0.6060606002
3892,0.5669599056
3893,0.5865102291
3894,0.5962854385
3895,0.6060606002
3896,0.6647116661
3897,0.6549364089
3898,0.6060606002
3899,0.6451612472
3900,0.8211143493
3901,0.7820136547
3902,0.7722384929
3903,0.8797654151
3904,0.8993157386
3905,0.8993157386
3906,1.0361680984
3907,1.1339198350
3908,1.1241446733
3909,1.1045943498
3910,0.9970674514
3911,0.9579667091
3912,0.8993157386
3913,0.8308895111
3914,0.8699902534
3915,0.8602150917
3916,0.9286412239
3917,0.8602150917
3918,0.8015640258
3919,0.7624633312
3920,0.7917888641
3921,0.8504399299
3922,0.8406646728
3923,0.8504399299
3924,0.9090909004
3925,0.8699902534
3926,0.8699902534
3927,0.7722384929
3928,0.8211143493
3929,0.7917888641
3930,0.8015640258
3931,0.7624633312
3932,0.8015640258
3933,0.7820136547
3934,0.6940371513
3935,0.7233626842
3936,0.6842619895
3937,0.6451612472
3938,0.6060606002
3939,0.5571847438
3940,0.4887585639
3941,0.4496578693
3942,0.4985337257
3943,0.5180840492
3944,0.4398827075
3945,0.4105571746
3946,0.4105571746
3947,0.3910068321
3948,0.3323558330
3949,0.3519061565
3950,0.3616813421
3951,0.3714565038
3952,0.3225806236
3953,0.2932551193
3954,0.2639296054
3955,0.2443792819
3956,0.2248289346
3957,0.2052785873
3958,0.2248289346
3959,0.2150537729
3960,0.2150537729
3961,0.2248289346
3962,0.2248289346
3963,0.2541544437
3964,0.3030303001
3965,0.3030303001
3966,0.2737047910
3967,0.3030303001
3968,0.3128054618
3969,0.2932551193
3970,0.3030303001
3971,0.2737047910
3972,0.2443792819
3973,0.2443792819
3974,0.2248289346
3975,0.2932551193
3976,0.2932551193
3977,0.3519061565
3978,0.3225806236
3979,0.3128054618
3980,0.3030303001
3981,0.3323558330
3982,0.3714565038
3983,0.3714565038
3984,0.3519061565
3985,0.3812316703
3986,0.4203323364
3987,0.3812316703
3988,0.4105571746
3989,0.4594330310
3990,0.4398827075
3991,0.4203323364
3992,0.4105571746
3993,0.4105571746
3994,0.3714565038
3995,0.3323558330
3996,0.3421309947
3997,0.3616813421
3998,0.3616813421
3999,0.3323558330
0,0.3616813421
1,1.6813293457
2,1.3685239553
3,1.1339198350
4,0.9188660621
5,0.7526881694
6,0.6158357620
7,0.5083088874
8,0.4301075458
9,0.3616813421
10,0.3030303001
11,0.2541544437
12,0.2150537729
13,0.2052785873
14,0.2052785873
15,0.1661779165
16,0.1466275596
17,0.1564027309
18,0.1466275596
19,0.1368523955
20,0.1173020482
21,0.1173020482
22,0.0977517032
23,0.0977517032
24,0.0684261989
25,0.0879765415
26,0.1075268864
27,0.0977517032
28,0.0782013654
29,0.0879765415
30,0.0782013654
31,0.1173020482
32,0.1075268864
33,0.0977517032
34,0.0879765415
35,0.0879765415
36,0.0879765415
37,0.0879765415
38,0.0977517032
39,0.0684261989
40,0.0782013654
41,0.0879765415
42,0.0879765415
43,0.0879765415
44,0.0879765415
45,0.0879765415
46,0.0879765415
47,0.0782013654
48,0.0684261989
49,0.0782013654
50,0.0782013654
51,0.0782013654
52,0.0782013654
53,0.1173020482
54,0.1173020482
55,0.1368523955
56,0.1270772218
57,0.1564027309
58,0.1564027309
59,0.1368523955
60,0.1270772218
61,0.1270772218
62,0.1270772218
63,0.1368523955
64,0.1368523955
65,0.1466275596
66,0.1564027309
67,0.1466275596
68,0.1466275596
69,0.2052785873
70,0.2150537729
71,0.2052785873
72,0.2150537729
73,0.1857282543
74,0.2150537729
75,0.2052785873
76,0.1955034160
77,0.1857282543
78,0.1564027309
79,0.1466275596
80,0.1368523955
81,0.1368523955
82,0.1564027309
83,0.1759530782
84,0.2150537729
85,0.2248289346
86,0.2150537729
87,0.2443792819
88,0.2737047910
89,0.2932551193
90,0.3225806236
91,0.3421309947
92,0.4203323364
93,0.5376344203
94,0.5376344203
95,0.6647116661
96,0.8993157386
97,1.0166177749
98,0.9677418708
99,0.9188660621
100,1.0166177749
101,1.0166177749
102,0.9970674514
103,0.9579667091
104,0.9481915473
105,0.9188660621
106,0.9775171279
107,0.9872922897
108,1.0752688646
109,1.0654937028
110,1.2218964099
111,1.2903225421
112,1.4662756919
113,1.5444769859
114,1.6520038604
115,1.7790811061
116,1.6520038604
117,1.5444769859
118,1.9061583518
119,2.0332355499
120,2.1309874057
121,2.1603128910
122,2.2873899936
123,2.4144673347
124,2.3069403171
125,2.5513195991
126,2.4242424964
127,2.5024437904
128,2.5317692756
129,2.4046921730
130,2.3460409641
131,2.2482893466
132,2.1407625675
133,2.1603128910
134,2.0234603881
135,1.9061583518
136,1.9550342559
137,1.7888562679
138,1.6324535369
139,1.6031280517
140,1.4662756919
141,1.5053763389
142,1.3098728656
143,1.2512218952
144,1.3196481466
145,1.2023460865
146,1.1534701585
147,1.2218964099
148,1.2316715717
149,1.1436949968
150,1.3098728656
151,1.2707722187
152,1.2707722187
153,1.1730204820
154,0.9970674514
155,1.0361680984
156,1.0166177749
157,0.8895405769
158,0.8699902534
159,0.7331378459
160,0.7135874748
161,0.7038123130
162,0.6256109237
163,0.5669599056
164,0.5278592109
165,0.5474095821
166,0.4985337257
167,0.5571847438
168,0.5180840492
169,0.4692081928
170,0.4789833545
171,0.4985337257
172,0.5278592109
173,0.4789833545
174,0.4887585639
175,0.5278592109
176,0.6158357620
177,0.6158357620
178,0.6353860855
179,0.5669599056
180,0.6256109237
181,0.6647116661
182,0.7233626842
183,0.6647116661
184,0.7038123130
185,0.6940371513
186,0.6744868278
187,0.6256109237
188,0.6940371513
189,0.7429130077
190,0.6451612472
191,0.5865102291
192,0.6549364089
193,0.6940371513
194,0.8308895111
195,0.8113391876
196,0.7624633312
197,0.7526881694
198,0.7038123130
199,0.6451612472
200,0.7135874748
201,0.6940371513
202,0.6353860855
203,0.7331378459
204,0.7233626842
205,0.8504399299
206,0.8015640258
207,0.7526881694
208,0.7624633312
209,0.7331378459
210,0.6256109237
211,0.6158357620
212,0.6647116661
213,0.5767350673
214,0.5278592109
215,0.5669599056
216,0.6353860855
217,0.5865102291
218,0.5962854385
219,0.6158357620
220,0.5767350673
221,0.5571847438
222,0.5474095821
223,0.6549364089
224,0.6940371513
225,0.6940371513
226,0.6451612472
227,0.6060606002
228,0.5962854385
229,0.5376344203
230,0.6158357620
231,0.6647116661
232,0.5962854385
233,0.5669599056
234,0.5083088874
235,0.5474095821
236,0.5180840492
237,0.4594330310
238,0.4203323364
239,0.4007820129
240,0.4007820129
241,0.4007820129
242,0.3421309947
243,0.3225806236
244,0.4105571746
245,0.3421309947
246,0.3910068321
247,0.4105571746
248,0.4398827075
249,0.3812316703
250,0.4789833545
251,0.4594330310
252,0.4105571746
253,0.3616813421
254,0.3128054618
255,0.3030303001
256,0.3421309947
257,0.3714565038
258,0.3225806236
259,0.2834799575
260,0.2541544437
261,0.2346040964
262,0.2248289346
263,0.1955034160
264,0.2150537729
265,0.2150537729
266,0.1955034160
267,0.1759530782
268,0.1661779165
269,0.1661779165
270,0.1661779165
271,0.1466275596
272,0.1368523955
273,0.1368523955
274,0.1564027309
275,0.1368523955
276,0.1270772218
277,0.1270772218
278,0.1173020482
279,0.1075268864
280,0.0879765415
281,0.0782013654
282,0.0782013654
283,0.1173020482
284,0.1075268864
285,0.0879765415
286,0.0684261989
287,0.0586510229
288,0.0586510229
289,0.0782013654
290,0.1173020482
291,0.1173020482
292,0.1173020482
293,0.1075268864
294,0.1173020482
295,0.1173020482
296,0.1368523955
297,0.1270772218
298,0.1270772218
299,0.1173020482
300,0.1075268864
301,0.0977517032
302,0.0977517032
303,0.0879765415
304,0.0782013654
305,0.0977517032
306,0.1466275596
307,0.1368523955
308,0.1368523955
309,0.1270772218
310,0.1173020482
311,0.1173020482
312,0.0977517032
313,0.0782013654
314,0.0879765415
315,0.0879765415
316,0.0879765415
317,0.0879765415
318,0.0977517032
319,0.0879765415
320,0.0879765415
321,0.0782013654
322,0.0684261989
323,0.0684261989
324,0.0782013654
325,0.0684261989
326,0.0586510229
327,0.0488758516
328,0.0488758516
329,0.0586510229
330,0.0684261989
331,0.0977517032
332,0.0879765415
333,0.0879765415
334,0.0782013654
335,0.0684261989
336,0.0684261989
337,0.0782013654
338,0.0684261989
339,0.0586510229
340,0.0488758516
341,0.0488758516
342,0.0391006832
343,0.0391006832
344,0.0293255119
345,0.0391006832
346,0.0391006832
347,0.0391006832
348,0.0391006832
349,0.0293255119
350,0.0293255119
351,0.0195503416
352,0.0391006832
353,0.0391006832
354,0.0391006832
355,0.0488758516
356,0.0293255119
357,0.0293255119
358,0.0293255119
359,0.0293255119
360,0.0293255119
361,0.0391006832
362,0.0391006832
363,0.0391006832
364,0.0293255119
365,0.0488758516
366,0.0684261989
367,0.0684261989
368,0.0782013654
369,0.0684261989
370,0.0782013654
371,0.0879765415
372,0.0879765415
373,0.0782013654
374,0.1075268864
375,0.1075268864
376,0.0977517032
377,0.0879765415
378,0.0782013654
379,0.0782013654
380,0.0977517032
381,0.0879765415
382,0.0782013654
383,0.0977517032
384,0.0879765415
385,0.0782013654
386,0.0879765415
387,0.0977517032
388,0.1075268864
389,0.1075268864
390,0.0977517032
391,0.0879765415
392,0.0782013654
393,0.0879765415
394,0.1173020482
395,0.1075268864
396,0.0977517032
397,0.0879765415
398,0.0879765415
399,0.0977517032
400,0.0879765415
401,0.0977517032
402,0.1173020482
403,0.1075268864
404,0.0977517032
405,0.0879765415
406,0.0879765415
407,0.0977517032
408,0.0879765415
409,0.0977517032
410,0.1075268864
411,0.1173020482
412,0.1173020482
413,0.1173020482
414,0.1075268864
415,0.0977517032
416,0.0879765415
417,0.0782013654
418,0.0684261989
419,0.1173020482
420,0.0977517032
421,0.0977517032
422,0.0782013654
423,0.0782013654
424,0.0782013654
425,0.0782013654
426,0.0684261989
427,0.0684261989
428,0.0684261989
429,0.0879765415
430,0.0782013654
431,0.0684261989
432,0.0782013654
433,0.0977517032
434,0.0977517032
435,0.0782013654
436,0.0977517032
437,0.1075268864
438,0.0879765415
439,0.0977517032
440,0.0977517032
441,0.1075268864
442,0.1075268864
443,0.0977517032
444,0.0879765415
445,0.0879765415
446,0.0879765415
447,0.0782013654
448,0.0782013654
449,0.0879765415
450,0.0782013654
451,0.0782013654
452,0.0684261989
453,0.0782013654
454,0.0782013654
455,0.0782013654
456,0.0782013654
457,0.0879765415
458,0.0879765415
459,0.0977517032
460,0.0977517032
461,0.0879765415
462,0.0782013654
463,0.1173020482
464,0.1759530782
465,0.1661779165
466,0.1955034160
467,0.1759530782
468,0.1466275596
469,0.1368523955
470,0.1270772218
471,0.1368523955
472,0.1564027309
473,0.1661779165
474,0.1564027309
475,0.1564027309
476,0.2052785873
477,0.2932551193
478,0.3812316703
479,0.4105571746
480,0.4007820129
481,0.4887585639
482,0.4985337257
483,0.5767350673
484,0.6060606002
485,0.4985337257
486,0.5278592109
487,0.5376344203
488,0.6744868278
489,0.6940371513
490,0.5962854385
491,0.6451612472
492,0.8113391876
493,0.7722384929
494,1.0361680984
495,1.1241446733
496,1.4760508537
497,1.5151515007
498,1.4467253684
499,1.5835777282
500,1.8768328666
501,2.0430107116
502,1.9354838371
503,1.7888562679
504,1.8279570579
505,1.7790811061
506,1.7302052974
507,1.6031280517
508,1.7790811061
509,1.8670577049
510,1.9061583518
511,1.7106549739
512,1.6813293457
513,1.8572825431
514,1.9061583518
515,2.2091886997
516,2.1994135379
517,2.0918865203
518,1.9257086753
519,1.9550342559
520,1.7595307826
521,1.6324535369
522,1.5444769859
523,1.5347018241
524,1.5053763389
525,1.3391984701
526,1.1925709247
527,1.2218964099
528,1.1241446733
529,1.2707722187
530,1.2414467334
531,1.3000977039
532,1.1827956390
533,1.1339198350
534,1.0166177749
535,1.1045943498
536,1.1045943498
537,1.0263929367
538,0.9090909004
539,0.8113391876
540,0.7526881694
541,0.7331378459
542,0.6451612472
543,0.5767350673
544,0.4887585639
545,0.4007820129
546,0.4105571746
547,0.3714565038
548,0.3421309947
549,0.3128054618
550,0.3519061565
551,0.4594330310
552,0.5180840492
553,0.5962854385
554,0.5962854385
555,0.5669599056
556,0.4692081928
557,0.4007820129
558,0.4105571746
559,0.4007820129
560,0.4203323364
561,0.4203323364
562,0.4496578693
563,0.4398827075
564,0.4692081928
565,0.4203323364
566,0.3812316703
567,0.4594330310
568,0.4496578693
569,0.4203323364
570,0.4007820129
571,0.4496578693
572,0.4301075458
573,0.4007820129
574,0.4007820129
575,0.3910068321
576,0.3910068321
577,0.3421309947
578,0.3128054618
579,0.3421309947
580,0.3519061565
581,0.3812316703
582,0.4985337257
583,0.4692081928
584,0.4789833545
585,0.4985337257
586,0.4887585639
587,0.4985337257
588,0.4985337257
589,0.5180840492
590,0.4594330310
591,0.4985337257
592,0.4887585639
593,0.4985337257
594,0.5278592109
595,0.4985337257
596,0.4692081928
597,0.4398827075
598,0.4105571746
599,0.4887585639
600,0.5376344203
601,0.4594330310
602,0.4496578693
603,0.4203323364
604,0.4301075458
605,0.4398827075
606,0.4105571746
607,0.4398827075
608,0.4789833545
609,0.4594330310
610,0.4594330310
611,0.4594330310
612,0.4789833545
613,0.4789833545
614,0.4301075458
615,0.4789833545
616,0.6060606002
617,0.6353860855
618,0.5571847438
619,0.5180840492
620,0.5083088874
621,0.4594330310
622,0.4398827075
623,0.4301075458
624,0.4692081928
625,0.4496578693
626,0.4301075458
627,0.5278592109
628,0.5278592109
629,0.5865102291
630,0.6256109237
631,0.5962854385
632,0.5571847438
633,0.5865102291
634,0.6060606002
635,0.5474095821
636,0.5571847438
637,0.5278592109
638,0.4887585639
639,0.4594330310
640,0.4789833545
641,0.4692081928
642,0.4789833545
643,0.4398827075
644,0.4105571746
645,0.3910068321
646,0.3519061565
647,0.3616813421
648,0.4301075458
649,0.4105571746
650,0.3714565038
651,0.3128054618
652,0.3030303001
653,0.2834799575
654,0.2932551193
655,0.2932551193
656,0.2541544437
657,0.2541544437
658,0.2248289346
659,0.2248289346
660,0.2150537729
661,0.2346040964
662,0.1955034160
663,0.2150537729
664,0.2443792819
665,0.2248289346
666,0.2443792819
667,0.2248289346
668,0.2052785873
669,0.1857282543
670,0.1564027309
671,0.1270772218
672,0.1075268864
673,0.0977517032
674,0.1075268864
675,0.0879765415
676,0.0782013654
677,0.0782013654
678,0.0782013654
679,0.0782013654
680,0.0684261989
681,0.0586510229
682,0.0879765415
683,0.1075268864
684,0.0977517032
685,0.0879765415
686,0.0684261989
687,0.0684261989
688,0.0684261989
689,0.0684261989
690,0.0586510229
691,0.0488758516
692,0.0391006832
693,0.0293255119
694,0.0293255119
695,0.0293255119
696,0.0391006832
697,0.0293255119
698,0.0293255119
699,0.0195503416
700,0.0195503416
701,0.0293255119
702,0.0391006832
703,0.0391006832
704,0.0391006832
705,0.0293255119
706,0.0195503416
707,0.0195503416
708,0.0097751703
709,0.0097751703
710,0.0097751703
711,0.0097751703
712,0.0097751703
713,0.0000000000
714,0.0000000000
715,0.0097751703
716,0.0097751703
717,0.0097751703
718,0.0097751703
719,0.0097751703
720,0.0000000000
721,0.0000000000
722,0.0000000000
723,0.0000000000
724,0.0000000000
725,0.0000000000
726,0.0586510229
727,0.0097751703
728,0.0000000000
729,0.0000000000
730,0.0000000000
731,0.0000000000
732,0.0000000000
733,0.0000000000
734,0.0000000000
735,0.0000000000
736,0.0000000000
737,0.0000000000
738,0.0000000000
739,0.0000000000
740,0.0000000000
741,0.0000000000
742,0.0000000000
743,0.0000000000
744,0.0000000000
745,0.0000000000
746,0.0000000000
747,0.0000000000
748,0.0000000000
749,0.0000000000
750,0.0000000000
751,0.0000000000
752,0.0000000000
753,0.0000000000
754,0.0000000000
755,0.0000000000
756,0.0000000000
757,0.0097751703
758,0.0097751703
759,0.0097751703
760,0.0097751703
761,0.0097751703
762,0.0195503416
763,0.0391006832
764,0.0586510229
765,0.0586510229
766,0.0586510229
767,0.0488758516
768,0.0488758516
769,0.0391006832
770,0.0488758516
771,0.0782013654
772,0.0782013654
773,0.0782013654
774,0.0684261989
775,0.0684261989
776,0.0684261989
777,0.0684261989
778,0.0684261989
779,0.0586510229
780,0.0488758516
781,0.0488758516
782,0.0586510229
783,0.0488758516
784,0.0391006832
785,0.0293255119
786,0.0293255119
787,0.0293255119
788,0.0195503416
789,0.0391006832
790,0.0293255119
791,0.0293255119
792,0.0293255119
793,0.0293255119
794,0.0195503416
795,0.0293255119
796,0.0293255119
797,0.0391006832
798,0.0391006832
799,0.0391006832
800,0.0293255119
801,0.0293255119
802,0.0293255119
803,0.0391006832
804,0.0391006832
805,0.0391006832
806,0.0488758516
807,0.0488758516
808,0.0488758516
809,0.0488758516
810,0.0488758516
811,0.0391006832
812,0.0488758516
813,0.0391006832
814,0.0391006832
815,0.0293255119
816,0.0293255119
817,0.0293255119
818,0.0293255119
819,0.0195503416
820,0.0195503416
821,0.0195503416
822,0.0195503416
823,0.0293255119
824,0.0391006832
825,0.0391006832
826,0.0293255119
827,0.0293255119
828,0.0293255119
829,0.0293255119
830,0.0195503416
831,0.0195503416
832,0.0195503416
833,0.0195503416
834,0.0195503416
835,0.0195503416
836,0.0097751703
837,0.0097751703
838,0.0097751703
839,0.0195503416
840,0.0097751703
841,0.0097751703
842,0.0097751703
843,0.0195503416
844,0.0195503416
845,0.0293255119
846,0.0195503416
847,0.0293255119
848,0.0293255119
849,0.0195503416
850,0.0293255119
851,0.0293255119
852,0.0293255119
853,0.0488758516
854,0.0586510229
855,0.0488758516
856,0.0391006832
857,0.0391006832
858,0.0488758516
859,0.0391006832
860,0.0488758516
861,0.0586510229
862,0.0586510229
863,0.0488758516
864,0.0391006832
865,0.0391006832
866,0.0391006832
867,0.0195503416
868,0.0195503416
869,0.0488758516
870,0.0488758516
871,0.0391006832
872,0.0391006832
873,0.0293255119
874,0.0391006832
875,0.0586510229
876,0.0488758516
877,0.0586510229
878,0.0684261989
879,0.0684261989
880,0.0782013654
881,0.0879765415
882,0.1173020482
883,0.1270772218
884,0.1173020482
885,0.1173020482
886,0.1466275596
887,0.1661779165
888,0.2052785873
889,0.2052785873
890,0.2443792819
891,0.2639296054
892,0.2834799575
893,0.2639296054
894,0.2737047910
895,0.3128054618
896,0.3616813421
897,0.3616813421
898,0.3519061565
899,0.3421309947
900,0.3225806236
901,0.4985337257
902,0.4985337257
903,0.5767350673
904,0.6353860855
905,0.6647116661
906,0.5962854385
907,0.5962854385
908,0.6842619895
909,0.6744868278
910,0.7722384929
911,0.9286412239
912,0.9384163856
913,0.9677418708
914,1.0361680984
915,1.1143695116
916,1.3196481466
917,1.4173997879
918,1.5151515007
919,1.8279570579
920,1.7302052974
921,1.7790811061
922,1.7693059444
923,1.7008798122
924,1.7302052974
925,2.2385141849
926,2.2580645084
927,2.1309874057
928,2.0332355499
929,1.9941349029
930,1.9354838371
931,1.8475073814
932,1.6617790222
933,1.6813293457
934,1.7595307826
935,1.8475073814
936,1.9452590942
937,1.8084066390
938,1.7790811061
939,1.9257086753
940,1.9550342559
941,1.7497556209
942,1.6911046504
943,1.5347018241
944,1.5542521476
945,1.4173997879
946,1.4076246261
947,1.2609970569
948,1.2609970569
949,1.2218964099
950,1.2512218952
951,1.1730204820
952,1.3098728656
953,1.3489736318
954,1.3000977039
955,1.2609970569
956,1.1436949968
957,1.1730204820
958,1.1632453203
959,1.2121212482
960,1.1730204820
961,1.0068426132
962,1.0361680984
963,0.8993157386
964,0.9677418708
965,0.8211143493
966,0.7624633312
967,0.7135874748
968,0.7135874748
969,0.6451612472
970,0.6256109237
971,0.6256109237
972,0.6744868278
973,0.5962854385
974,0.5865102291
975,0.6549364089
976,0.5669599056
977,0.5865102291
978,0.5669599056
979,0.5962854385
980,0.5278592109
981,0.4985337257
982,0.4496578693
983,0.4496578693
984,0.4789833545
985,0.4594330310
986,0.5180840492
987,0.6158357620
988,0.5962854385
989,0.5376344203
990,0.5474095821
991,0.5571847438
992,0.5571847438
993,0.5376344203
994,0.5376344203
995,0.5767350673
996,0.5865102291
997,0.5962854385
998,0.5962854385
999,0.5865102291
1000,0.5865102291
1001,1.4271749496
1002,1.1534701585
1003,0.9286412239
1004,0.7624633312
1005,0.6353860855
1006,0.5180840492
1007,0.4203323364
1008,0.3421309947
1009,0.2834799575
1010,0.2443792819
1011,0.2052785873
1012,0.1857282543
1013,0.1564027309
1014,0.1368523955
1015,0.1173020482
1016,0.1075268864
1017,0.1270772218
1018,0.1173020482
1019,0.0977517032
1020,0.0879765415
1021,0.0782013654
1022,0.0977517032
1023,0.0879765415
1024,0.0782013654
1025,0.0684261989
1026,0.0684261989
1027,0.0586510229
1028,0.0586510229
1029,0.0586510229
1030,0.0488758516
1031,0.0488758516
1032,0.0391006832
1033,0.0391006832
1034,0.0684261989
1035,0.0586510229
1036,0.0488758516
1037,0.0391006832
1038,0.0684261989
1039,0.0586510229
1040,0.0586510229
1041,0.0488758516
1042,0.0488758516
1043,0.0684261989
1044,0.0586510229
1045,0.0488758516
1046,0.0391006832
1047,0.0293255119
1048,0.0391006832
1049,0.0488758516
1050,0.0391006832
1051,0.0293255119
1052,0.0293255119
1053,0.0391006832
1054,0.0293255119
1055,0.0293255119
1056,0.0293255119
1057,0.0195503416
1058,0.0293255119
1059,0.0293255119
1060,0.0293255119
1061,0.0195503416
1062,0.0195503416
1063,0.0195503416
1064,0.0195503416
1065,0.0293255119
1066,0.0391006832
1067,0.0293255119
1068,0.0293255119
1069,0.0391006832
1070,0.0293255119
1071,0.0293255119
1072,0.0195503416
1073,0.0195503416
1074,0.0195503416
1075,0.0097751703
1076,0.0195503416
1077,0.0195503416
1078,0.0195503416
1079,0.0195503416
1080,0.0195503416
1081,0.0293255119
1082,0.0293255119
1083,0.0293255119
1084,0.0391006832
1085,0.0293255119
1086,0.0293255119
1087,0.0293255119
1088,0.0293255119
1089,0.0195503416
1090,0.0195503416
1091,0.0195503416
1092,0.0195503416
1093,0.0195503416
1094,0.0195503416
1095,0.0195503416
1096,0.0097751703
1097,0.0195503416
1098,0.0195503416
1099,0.0097751703
1100,0.0097751703
1101,0.0097751703
1102,0.0097751703
1103,0.0097751703
1104,0.0097751703
1105,0.0293255119
1106,0.0293255119
1107,0.0488758516
1108,0.0782013654
1109,0.0977517032
1110,0.1270772218
1111,0.1857282543
1112,0.1857282543
1113,0.2150537729
1114,0.2248289346
1115,0.2834799575
1116,0.3323558330
1117,0.3714565038
1118,0.4594330310
1119,0.4887585639
1120,0.4692081928
1121,0.4594330310
1122,0.6451612472
1123,0.6940371513
1124,0.7429130077
1125,0.6940371513
1126,0.7722384929
1127,0.9286412239
1128,1.0361680984
1129,0.9579667091
1130,0.9872922897
1131,0.9090909004
1132,0.7917888641
1133,0.8406646728
1134,0.8015640258
1135,1.2316715717
1136,1.2316715717
1137,1.3196481466
1138,1.2023460865
1139,1.1143695116
1140,1.3294233083
1141,1.1045943498
1142,1.0850440216
1143,1.5542521476
1144,1.6617790222
1145,1.6324535369
1146,1.6129032135
1147,1.7106549739
1148,1.5640273094
1149,1.5151515007
1150,1.5347018241
1151,1.6324535369
1152,1.7986314296
1153,1.7497556209
1154,1.7399804592
1155,1.5738025665
1156,1.5444769859
1157,1.3978494453
1158,1.8084066390
1159,1.7106549739
1160,1.5738025665
1161,1.5347018241
1162,1.5738025665
1163,1.6031280517
1164,1.5249266624
1165,1.5151515007
1166,1.3782991170
1167,1.4173997879
1168,1.2707722187
1169,1.1143695116
1170,0.9872922897
1171,0.8504399299
1172,0.8113391876
1173,0.7624633312
1174,0.6842619895
1175,0.5571847438
1176,0.5376344203
1177,0.5083088874
1178,0.4789833545
1179,0.4007820129
1180,0.3323558330
1181,0.2834799575
1182,0.3030303001
1183,0.2639296054
1184,0.2150537729
1185,0.1955034160
1186,0.2443792819
1187,0.2150537729
1188,0.1857282543
1189,0.2150537729
1190,0.2639296054
1191,0.2541544437
1192,0.2443792819
1193,0.3030303001
1194,0.3225806236
1195,0.3128054618
1196,0.3323558330
1197,0.3714565038
1198,0.3519061565
1199,0.3519061565
1200,0.4301075458
1201,0.4007820129
1202,0.4007820129
1203,0.3812316703
1204,0.3421309947
1205,0.3225806236
1206,0.3225806236
1207,0.3616813421
1208,0.4105571746
1209,0.3812316703
1210,0.3910068321
1211,0.3714565038
1212,0.4007820129
1213,0.4496578693
1214,0.4203323364
1215,0.4301075458
1216,0.4301075458
1217,0.4105571746
1218,0.4398827075
1219,0.4496578693
1220,0.4301075458
1221,0.4301075458
1222,0.4398827075
1223,0.4496578693
1224,0.4203323364
1225,0.4692081928
1226,0.4398827075
1227,0.5180840492
1228,0.5180840492
1229,0.5180840492
1230,0.5571847438
1231,0.4985337257
1232,0.4789833545
1233,0.4594330310
1234,0.4692081928
1235,0.4789833545
1236,0.5180840492
1237,0.5376344203
1238,0.5669599056
1239,0.5571847438
1240,0.4985337257
1241,0.5180840492
1242,0.5180840492
1243,0.4985337257
1244,0.4789833545
1245,0.4985337257
1246,0.5278592109
1247,0.5376344203
1248,0.5180840492
1249,0.4692081928
1250,0.4887585639
1251,0.4985337257
1252,0.4887585639
1253,0.4789833545
1254,0.4789833545
1255,0.4985337257
1256,0.5962854385
1257,0.5571847438
1258,0.4887585639
1259,0.4398827075
1260,0.4398827075
1261,0.4398827075
1262,0.5767350673
1263,0.5180840492
1264,0.5571847438
1265,0.5669599056
1266,0.5865102291
1267,0.5474095821
1268,0.5083088874
1269,0.4594330310
1270,0.4105571746
1271,0.4007820129
1272,0.5180840492
1273,0.4887585639
1274,0.4692081928
1275,0.4496578693
1276,0.4398827075
1277,0.4203323364
1278,0.3910068321
1279,0.3812316703
1280,0.4007820129
1281,0.4105571746
1282,0.4398827075
1283,0.4789833545
1284,0.4789833545
1285,0.4203323364
1286,0.4105571746
1287,0.3519061565
1288,0.3714565038
1289,0.3714565038
1290,0.4398827075
1291,0.3812316703
1292,0.3812316703
1293,0.3421309947
1294,0.3616813421
1295,0.3421309947
1296,0.3519061565
1297,0.3616813421
1298,0.3910068321
1299,0.3421309947
1300,0.3225806236
1301,0.3323558330
1302,0.3910068321
1303,0.4007820129
1304,0.3714565038
1305,0.3323558330
1306,0.2932551193
1307,0.2639296054
1308,0.3030303001
1309,0.2834799575
1310,0.3128054618
1311,0.2639296054
1312,0.2443792819
1313,0.2346040964
1314,0.2346040964
1315,0.2932551193
1316,0.3616813421
1317,0.4301075458
1318,0.4496578693
1319,0.4789833545
1320,0.4887585639
1321,0.4887585639
1322,0.4887585639
1323,0.4398827075
1324,0.4301075458
1325,0.4301075458
1326,0.3616813421
1327,0.3128054618
1328,0.3128054618
1329,0.3421309947
1330,0.3323558330
1331,0.3030303001
1332,0.2932551193
1333,0.2834799575
1334,0.3225806236
1335,0.3128054618
1336,0.3030303001
1337,0.3030303001
1338,0.2639296054
1339,0.2346040964
1340,0.2639296054
1341,0.2834799575
1342,0.3030303001
1343,0.2541544437
1344,0.2248289346
1345,0.1955034160
1346,0.1661779165
1347,0.1466275596
1348,0.1564027309
1349,0.1564027309
1350,0.1661779165
1351,0.1564027309
1352,0.1759530782
1353,0.1661779165
1354,0.1564027309
1355,0.1857282543
1356,0.1857282543
1357,0.1759530782
1358,0.1759530782
1359,0.1661779165
1360,0.1368523955
1361,0.1661779165
1362,0.1955034160
1363,0.2052785873
1364,0.2150537729
1365,0.2052785873
1366,0.1857282543
1367,0.1661779165
1368,0.1857282543
1369,0.1661779165
1370,0.1564027309
1371,0.1564027309
1372,0.1368523955
1373,0.1466275596
1374,0.1661779165
1375,0.1466275596
1376,0.1368523955
1377,0.1173020482
1378,0.1173020482
1379,0.0977517032
1380,0.1173020482
1381,0.1368523955
1382,0.1270772218
1383,0.1075268864
1384,0.0977517032
1385,0.1270772218
1386,0.1270772218
1387,0.1368523955
1388,0.1075268864
1389,0.0977517032
1390,0.0879765415
1391,0.1368523955
1392,0.1368523955
1393,0.1270772218
1394,0.1270772218
1395,0.1270772218
1396,0.1075268864
1397,0.1368523955
1398,0.1270772218
1399,0.1173020482
1400,0.1270772218
1401,0.1173020482
1402,0.1368523955
1403,0.1759530782
1404,0.1661779165
1405,0.1466275596
1406,0.1466275596
1407,0.1564027309
1408,0.1466275596
1409,0.1466275596
1410,0.1368523955
1411,0.0977517032
1412,0.0782013654
1413,0.0782013654
1414,0.0684261989
1415,0.0684261989
1416,0.0586510229
1417,0.0684261989
1418,0.0782013654
1419,0.0879765415
1420,0.0977517032
1421,0.0977517032
1422,0.1173020482
1423,0.1270772218
1424,0.0977517032
1425,0.1466275596
1426,0.1564027309
1427,0.1564027309
1428,0.1857282543
1429,0.1955034160
1430,0.1955034160
1431,0.1857282543
1432,0.1661779165
1433,0.1564027309
1434,0.1466275596
1435,0.1661779165
1436,0.1955034160
1437,0.2052785873
1438,0.2052785873
1439,0.2443792819
1440,0.2052785873
1441,0.1955034160
1442,0.1661779165
1443,0.2150537729
1444,0.1857282543
1445,0.1661779165
1446,0.1466275596
1447,0.1857282543
1448,0.1857282543
1449,0.1759530782
1450,0.1564027309
1451,0.1368523955
1452,0.1270772218
1453,0.1270772218
1454,0.1270772218
1455,0.1173020482
1456,0.1075268864
1457,0.1075268864
1458,0.1270772218
1459,0.1075268864
1460,0.0977517032
1461,0.0782013654
1462,0.0684261989
1463,0.0684261989
1464,0.0879765415
1465,0.0782013654
1466,0.0879765415
1467,0.0977517032
1468,0.0782013654
1469,0.0879765415
1470,0.0879765415
1471,0.0879765415
1472,0.0879765415
1473,0.0879765415
1474,0.0879765415
1475,0.0782013654
1476,0.0782013654
1477,0.0684261989
1478,0.0684261989
1479,0.0879765415
1480,0.0879765415
1481,0.0879765415
1482,0.0782013654
1483,0.0782013654
1484,0.0684261989
1485,0.0684261989
1486,0.0782013654
1487,0.0684261989
1488,0.0684261989
1489,0.0586510229
1490,0.0586510229
1491,0.0586510229
1492,0.0586510229
1493,0.0586510229
1494,0.0586510229
1495,0.0488758516
1496,0.0488758516
1497,0.0488758516
1498,0.0782013654
1499,0.0586510229
1500,0.0586510229
1501,0.0586510229
1502,0.0488758516
1503,0.0586510229
1504,0.0684261989
1505,0.0782013654
1506,0.0684261989
1507,0.0684261989
1508,0.0684261989
1509,0.0586510229
1510,0.0488758516
1511,0.0586510229
1512,0.0586510229
1513,0.0586510229
1514,0.0586510229
1515,0.0488758516
1516,0.0391006832
1517,0.0293255119
1518,0.0293255119
1519,0.0391006832
1520,0.0586510229
1521,0.0586510229
1522,0.0488758516
1523,0.0488758516
1524,0.0684261989
1525,0.0879765415
1526,0.0879765415
1527,0.1270772218
1528,0.1368523955
1529,0.1661779165
1530,0.2150537729
1531,0.2248289346
1532,0.2443792819
1533,0.3030303001
1534,0.3421309947
1535,0.4398827075
1536,0.5278592109
1537,0.5278592109
1538,0.4692081928
1539,0.4789833545
1540,0.5669599056
1541,0.6353860855
1542,0.6158357620
1543,0.6256109237
1544,0.8602150917
1545,0.8113391876
1546,0.8308895111
1547,0.8895405769
1548,1.0654937028
1549,1.0850440216
1550,1.0948191833
1551,0.9579667091
1552,1.0752688646
1553,1.1339198350
1554,1.1045943498
1555,1.0654937028
1556,1.0166177749
1557,1.1730204820
1558,1.6520038604
1559,1.6813293457
1560,1.8670577049
1561,1.7790811061
1562,1.8181818962
1563,1.6813293457
1564,1.7399804592
1565,1.8181818962
1566,1.6617790222
1567,1.7986314296
1568,1.7106549739
1569,1.6422286987
1570,1.7106549739
1571,1.7302052974
1572,1.5347018241
1573,1.4662756919
1574,1.5835777282
1575,1.5347018241
1576,1.3685239553
1577,1.5738025665
1578,1.4369501113
1579,1.3587487936
1580,1.2805473804
1581,1.4760508537
1582,1.3880742835
1583,1.3098728656
1584,1.2707722187
1585,1.1632453203
1586,1.2316715717
1587,1.3391984701
1588,1.3098728656
1589,1.1632453203
1590,1.3489736318
1591,1.3978494453
1592,1.3196481466
1593,1.2609970569
1594,1.2805473804
1595,1.2316715717
1596,1.0557184219
1597,0.9384163856
1598,0.8504399299
1599,0.7038123130
1600,0.5962854385
1601,0.5180840492
1602,0.4692081928
1603,0.4594330310
1604,0.4203323364
1605,0.3910068321
1606,0.3616813421
1607,0.3519061565
1608,0.3616813421
1609,0.3225806236
1610,0.3225806236
1611,0.3421309947
1612,0.3421309947
1613,0.4105571746
1614,0.3812316703
1615,0.3616813421
1616,0.3323558330
1617,0.3714565038
1618,0.3519061565
1619,0.3421309947
1620,0.3225806236
1621,0.3030303001
1622,0.3225806236
1623,0.3225806236
1624,0.3225806236
1625,0.3714565038
1626,0.3616813421
1627,0.3421309947
1628,0.3519061565
1629,0.3519061565
1630,0.3421309947
1631,0.3812316703
1632,0.3910068321
1633,0.4007820129
1634,0.4301075458
1635,0.4007820129
1636,0.3714565038
1637,0.4203323364
1638,0.4692081928
1639,0.4105571746
1640,0.4203323364
1641,0.4301075458
1642,0.4105571746
1643,0.4887585639
1644,0.4789833545
1645,0.4496578693
1646,0.4594330310
1647,0.5278592109
1648,0.5571847438
1649,0.5083088874
1650,0.4496578693
1651,0.4692081928
1652,0.4398827075
1653,0.4594330310
1654,0.4594330310
1655,0.4887585639
1656,0.5278592109
1657,0.4594330310
1658,0.5180840492
1659,0.4985337257
1660,0.4789833545
1661,0.4594330310
1662,0.4398827075
1663,0.3714565038
1664,0.3714565038
1665,0.3616813421
1666,0.3812316703
1667,0.3714565038
1668,0.4398827075
1669,0.4105571746
1670,0.4887585639
1671,0.5278592109
1672,0.5180840492
1673,0.5180840492
1674,0.4692081928
1675,0.4398827075
1676,0.4985337257
1677,0.4692081928
1678,0.4496578693
1679,0.4398827075
1680,0.4496578693
1681,0.4007820129
1682,0.3714565038
1683,0.3519061565
1684,0.3323558330
1685,0.3323558330
1686,0.3421309947
1687,0.3812316703
1688,0.4007820129
1689,0.4203323364
1690,0.3714565038
1691,0.4007820129
1692,0.3519061565
1693,0.3421309947
1694,0.3714565038
1695,0.3323558330
1696,0.3225806236
1697,0.3421309947
1698,0.3128054618
1699,0.3128054618
1700,0.3030303001
1701,0.3030303001
1702,0.2834799575
1703,0.2834799575
1704,0.3128054618
1705,0.3128054618
1706,0.2834799575
1707,0.2932551193
1708,0.3323558330
1709,0.3128054618
1710,0.3225806236
1711,0.3421309947
1712,0.3616813421
1713,0.3323558330
1714,0.3323558330
1715,0.3030303001
1716,0.2834799575
1717,0.3616813421
1718,0.3519061565
1719,0.3323558330
1720,0.2932551193
1721,0.2932551193
1722,0.2834799575
1723,0.2639296054
1724,0.2834799575
1725,0.2834799575
1726,0.2541544437
1727,0.2932551193
1728,0.2932551193
1729,0.4007820129
1730,0.3812316703
1731,0.3616813421
1732,0.3812316703
1733,0.3714565038
1734,0.4301075458
1735,0.3616813421
1736,0.4203323364
1737,0.3812316703
1738,0.3519061565
1739,0.3323558330
1740,0.3421309947
1741,0.3519061565
1742,0.3128054618
1743,0.2932551193
1744,0.2639296054
1745,0.2443792819
1746,0.2541544437
1747,0.2639296054
1748,0.2443792819
1749,0.2346040964
1750,0.2932551193
1751,0.3812316703
1752,0.3323558330
1753,0.2737047910
1754,0.2737047910
1755,0.2541544437
1756,0.2346040964
1757,0.2443792819
1758,0.2737047910
1759,0.2639296054
1760,0.2541544437
1761,0.2639296054
1762,0.2248289346
1763,0.2248289346
1764,0.2248289346
1765,0.1955034160
1766,0.2052785873
1767,0.2052785873
1768,0.1857282543
1769,0.1661779165
1770,0.1759530782
1771,0.1759530782
1772,0.1857282543
1773,0.1857282543
1774,0.1661779165
1775,0.1466275596
1776,0.1173020482
1777,0.1173020482
1778,0.1270772218
1779,0.1368523955
1780,0.1270772218
1781,0.1368523955
1782,0.1270772218
1783,0.1368523955
1784,0.1466275596
1785,0.1270772218
1786,0.1368523955
1787,0.1564027309
1788,0.1661779165
1789,0.1466275596
1790,0.1564027309
1791,0.1857282543
1792,0.1661779165
1793,0.1466275596
1794,0.1368523955
1795,0.1564027309
1796,0.1466275596
1797,0.1466275596
1798,0.1368523955
1799,0.1368523955
1800,0.1564027309
1801,0.1564027309
1802,0.1466275596
1803,0.1368523955
1804,0.1368523955
1805,0.1270772218
1806,0.1270772218
1807,0.1270772218
1808,0.1173020482
1809,0.1173020482
1810,0.0977517032
1811,0.0879765415
1812,0.0782013654
1813,0.1466275596
1814,0.1368523955
1815,0.1270772218
1816,0.1173020482
1817,0.1173020482
1818,0.1173020482
1819,0.1368523955
1820,0.1270772218
1821,0.1173020482
1822,0.1368523955
1823,0.1564027309
1824,0.1270772218
1825,0.1173020482
1826,0.1270772218
1827,0.1270772218
1828,0.1173020482
1829,0.1173020482
1830,0.1270772218
1831,0.1466275596
1832,0.1466275596
1833,0.1466275596
1834,0.1368523955
1835,0.1368523955
1836,0.1075268864
1837,0.0879765415
1838,0.0977517032
1839,0.1075268864
1840,0.1270772218
1841,0.1173020482
1842,0.1270772218
1843,0.1270772218
1844,0.1075268864
1845,0.1270772218
1846,0.1270772218
1847,0.1466275596
1848,0.1270772218
1849,0.1270772218
1850,0.1368523955
1851,0.1270772218
1852,0.1368523955
1853,0.1270772218
1854,0.1173020482
1855,0.1270772218
1856,0.1270772218
1857,0.1368523955
1858,0.1270772218
1859,0.1270772218
1860,0.1173020482
1861,0.1173020482
1862,0.1075268864
1863,0.0977517032
1864,0.0879765415
1865,0.0879765415
1866,0.0977517032
1867,0.0879765415
1868,0.1075268864
1869,0.1075268864
1870,0.1075268864
1871,0.1075268864
1872,0.1270772218
1873,0.1173020482
1874,0.1173020482
1875,0.1270772218
1876,0.1173020482
1877,0.1075268864
1878,0.0977517032
1879,0.0879765415
1880,0.0879765415
1881,0.0977517032
1882,0.0879765415
1883,0.0782013654
1884,0.0586510229
1885,0.0684261989
1886,0.0684261989
1887,0.0879765415
1888,0.1075268864
1889,0.0977517032
1890,0.1075268864
1891,0.1270772218
1892,0.1075268864
1893,0.1173020482
1894,0.0977517032
1895,0.0977517032
1896,0.0879765415
1897,0.0977517032
1898,0.0879765415
1899,0.0782013654
1900,0.0782013654
1901,0.0684261989
1902,0.0879765415
1903,0.0684261989
1904,0.0586510229
1905,0.0684261989
1906,0.0684261989
1907,0.1075268864
1908,0.1075268864
1909,0.0977517032
1910,0.0782013654
1911,0.0782013654
1912,0.0782013654
1913,0.0782013654
1914,0.0684261989
1915,0.0586510229
1916,0.0879765415
1917,0.0977517032
1918,0.0879765415
1919,0.0879765415
1920,0.0879765415
1921,0.0782013654
1922,0.0684261989
1923,0.0684261989
1924,0.0684261989
1925,0.0586510229
1926,0.0586510229
1927,0.0488758516
1928,0.0488758516
1929,0.0684261989
1930,0.0684261989
1931,0.0684261989
1932,0.0488758516
1933,0.0586510229
1934,0.0488758516
1935,0.0488758516
1936,0.0488758516
1937,0.0488758516
1938,0.0391006832
1939,0.0391006832
1940,0.0391006832
1941,0.0391006832
1942,0.0391006832
1943,0.0391006832
1944,0.0293255119
1945,0.0293255119
1946,0.0391006832
1947,0.0391006832
1948,0.0391006832
1949,0.0293255119
1950,0.0293255119
1951,0.0195503416
1952,0.0293255119
1953,0.0293255119
1954,0.0195503416
1955,0.0293255119
1956,0.0195503416
1957,0.0195503416
1958,0.0391006832
1959,0.0586510229
1960,0.0782013654
1961,0.0977517032
1962,0.1661779165
1963,0.1759530782
1964,0.2248289346
1965,0.2737047910
1966,0.3128054618
1967,0.3030303001
1968,0.3128054618
1969,0.3714565038
1970,0.3812316703
1971,0.4594330310
1972,0.4692081928
1973,0.4985337257
1974,0.5669599056
1975,0.6940371513
1976,0.6744868278
1977,0.6647116661
1978,0.7233626842
1979,0.7135874748
1980,0.6451612472
1981,0.7233626842
1982,0.9188660621
1983,1.2414467334
1984,1.1632453203
1985,1.1143695116
1986,1.0850440216
1987,1.3391984701
1988,1.5444769859
1989,1.4173997879
1990,1.4173997879
1991,1.4271749496
1992,1.4858260154
1993,1.5835777282
1994,1.5933528900
1995,1.5151515007
1996,1.6324535369
1997,1.5738025665
1998,1.4565005302
1999,1.4076246261
2000,2.1994135379
2001,2.4633431434
2002,1.9648094177
2003,1.5738025665
2004,1.2903225421
2005,1.0459432601
2006,0.8602150917
2007,0.7038123130
2008,0.5767350673
2009,0.4789833545
2010,0.4105571746
2011,0.3519061565
2012,0.3030303001
2013,0.2834799575
2014,0.2346040964
2015,0.2248289346
2016,0.1955034160
2017,0.1857282543
2018,0.1564027309
2019,0.1466275596
2020,0.1466275596
2021,0.1368523955
2022,0.1368523955
2023,0.1270772218
2024,0.1270772218
2025,0.1270772218
2026,0.1173020482
2027,0.1075268864
2028,0.1368523955
2029,0.1368523955
2030,0.1368523955
2031,0.1368523955
2032,0.1270772218
2033,0.1466275596
2034,0.1466275596
2035,0.1466275596
2036,0.1368523955
2037,0.1270772218
2038,0.1466275596
2039,0.1466275596
2040,0.1466275596
2041,0.1270772218
2042,0.1368523955
2043,0.1270772218
2044,0.1270772218
2045,0.1270772218
2046,0.1368523955
2047,0.1661779165
2048,0.1564027309
2049,0.1466275596
2050,0.1564027309
2051,0.1466275596
2052,0.1270772218
2053,0.1368523955
2054,0.1270772218
2055,0.1173020482
2056,0.1173020482
2057,0.1075268864
2058,0.1075268864
2059,0.1075268864
2060,0.1270772218
2061,0.1075268864
2062,0.1075268864
2063,0.1270772218
2064,0.1173020482
2065,0.1173020482
2066,0.1075268864
2067,0.1173020482
2068,0.1173020482
2069,0.1270772218
2070,0.1270772218
2071,0.1173020482
2072,0.1466275596
2073,0.1466275596
2074,0.1368523955
2075,0.1368523955
2076,0.1368523955
2077,0.1270772218
2078,0.1661779165
2079,0.1564027309
2080,0.1466275596
2081,0.1466275596
2082,0.1564027309
2083,0.1466275596
2084,0.1466275596
2085,0.1270772218
2086,0.1270772218
2087,0.1368523955
2088,0.1270772218
2089,0.1466275596
2090,0.1368523955
2091,0.1466275596
2092,0.1564027309
2093,0.1564027309
2094,0.1466275596
2095,0.1564027309
2096,0.1466275596
2097,0.1368523955
2098,0.1466275596
2099,0.1368523955
2100,0.1368523955
2101,0.1368523955
2102,0.1368523955
2103,0.1368523955
2104,0.1368523955
2105,0.1368523955
2106,0.1466275596
2107,0.1466275596
2108,0.1368523955
2109,0.1368523955
2110,0.1270772218
2111,0.1368523955
2112,0.1466275596
2113,0.1466275596
2114,0.1368523955
2115,0.1270772218
2116,0.1173020482
2117,0.1173020482
2118,0.1173020482
2119,0.1173020482
2120,0.1270772218
2121,0.1368523955
2122,0.1368523955
2123,0.1661779165
2124,0.1564027309
2125,0.1466275596
2126,0.1368523955
2127,0.1368523955
2128,0.1368523955
2129,0.1564027309
2130,0.1466275596
2131,0.1270772218
2132,0.1270772218
2133,0.1173020482
2134,0.1173020482
2135,0.1270772218
2136,0.1368523955
2137,0.1173020482
2138,0.1075268864
2139,0.1466275596
2140,0.1759530782
2141,0.1564027309
2142,0.1466275596
2143,0.1466275596
2144,0.1466275596
2145,0.1368523955
2146,0.1270772218
2147,0.1270772218
2148,0.1466275596
2149,0.1466275596
2150,0.1466275596
2151,0.1368523955
2152,0.1466275596
2153,0.1466275596
2154,0.1466275596
2155,0.1564027309
2156,0.1564027309
2157,0.1564027309
2158,0.1564027309
2159,0.1564027309
2160,0.1564027309
2161,0.1661779165
2162,0.1759530782
2163,0.2052785873
2164,0.2052785873
2165,0.2248289346
2166,0.2346040964
2167,0.2541544437
2168,0.2248289346
2169,0.2541544437
2170,0.2639296054
2171,0.2443792819
2172,0.2737047910
2173,0.2541544437
2174,0.2443792819
2175,0.2346040964
2176,0.2932551193
2177,0.3030303001
2178,0.2834799575
2179,0.3030303001
2180,0.2932551193
2181,0.2639296054
2182,0.2737047910
2183,0.2737047910
2184,0.3128054618
2185,0.3225806236
2186,0.3616813421
2187,0.3323558330
2188,0.3421309947
2189,0.3714565038
2190,0.3910068321
2191,0.3519061565
2192,0.3519061565
2193,0.3616813421
2194,0.3421309947
2195,0.3812316703
2196,0.3714565038
2197,0.3910068321
2198,0.4007820129
2199,0.4105571746
2200,0.4007820129
2201,0.3910068321
2202,0.3812316703
2203,0.4105571746
2204,0.4789833545
2205,0.4496578693
2206,0.5278592109
2207,0.4789833545
2208,0.4887585639
2209,0.4985337257
2210,0.4887585639
2211,0.4398827075
2212,0.4105571746
2213,0.3714565038
2214,0.4007820129
2215,0.3616813421
2216,0.3519061565
2217,0.3421309947
2218,0.3323558330
2219,0.3225806236
2220,0.3128054618
2221,0.2834799575
2222,0.2932551193
2223,0.2932551193
2224,0.2737047910
2225,0.2541544437
2226,0.2541544437
2227,0.2541544437
2228,0.2248289346
2229,0.2052785873
2230,0.1955034160
2231,0.2052785873
2232,0.1857282543
2233,0.1661779165
2234,0.1466275596
2235,0.1368523955
2236,0.1368523955
2237,0.1564027309
2238,0.1466275596
2239,0.1270772218
2240,0.1270772218
2241,0.1368523955
2242,0.1270772218
2243,0.1173020482
2244,0.1075268864
2245,0.1270772218
2246,0.1270772218
2247,0.1173020482
2248,0.1270772218
2249,0.1368523955
2250,0.1368523955
2251,0.1270772218
2252,0.1466275596
2253,0.1759530782
2254,0.1759530782
2255,0.1661779165
2256,0.1564027309
2257,0.1661779165
2258,0.1857282543
2259,0.1759530782
2260,0.1759530782
2261,0.1857282543
2262,0.1857282543
2263,0.1759530782
2264,0.2248289346
2265,0.2150537729
2266,0.2248289346
2267,0.2150537729
2268,0.2541544437
2269,0.2541544437
2270,0.2443792819
2271,0.2541544437
2272,0.2541544437
2273,0.2541544437
2274,0.2443792819
2275,0.2443792819
2276,0.2541544437
2277,0.2639296054
2278,0.2639296054
2279,0.2248289346
2280,0.2248289346
2281,0.2248289346
2282,0.2150537729
2283,0.1955034160
2284,0.2052785873
2285,0.2248289346
2286,0.2248289346
2287,0.2052785873
2288,0.2052785873
2289,0.1857282543
2290,0.2248289346
2291,0.1955034160
2292,0.1759530782
2293,0.1661779165
2294,0.1759530782
2295,0.1857282543
2296,0.2150537729
2297,0.2248289346
2298,0.2443792819
2299,0.2248289346
2300,0.2346040964
2301,0.2443792819
2302,0.2150537729
2303,0.2052785873
2304,0.1955034160
2305,0.1955034160
2306,0.1955034160
2307,0.1955034160
2308,0.1857282543
2309,0.1661779165
2310,0.1661779165
2311,0.1564027309
2312,0.1564027309
2313,0.1466275596
2314,0.1564027309
2315,0.1759530782
2316,0.1564027309
2317,0.1759530782
2318,0.1857282543
2319,0.1857282543
2320,0.1661779165
2321,0.1857282543
2322,0.1857282543
2323,0.1759530782
2324,0.1759530782
2325,0.1661779165
2326,0.1466275596
2327,0.1466275596
2328,0.1564027309
2329,0.1466275596
2330,0.1564027309
2331,0.1661779165
2332,0.1564027309
2333,0.1368523955
2334,0.1368523955
2335,0.1564027309
2336,0.1368523955
2337,0.1270772218
2338,0.1173020482
2339,0.1173020482
2340,0.1368523955
2341,0.1368523955
2342,0.1270772218
2343,0.1368523955
2344,0.1270772218
2345,0.1368523955
2346,0.1564027309
2347,0.1368523955
2348,0.1564027309
2349,0.1466275596
2350,0.1368523955
2351,0.1466275596
2352,0.1466275596
2353,0.1564027309
2354,0.1466275596
2355,0.1564027309
2356,0.1368523955
2357,0.1368523955
2358,0.1270772218
2359,0.1270772218
2360,0.1270772218
2361,0.1368523955
2362,0.1661779165
2363,0.1661779165
2364,0.1661779165
2365,0.1564027309
2366,0.1564027309
2367,0.1661779165
2368,0.1466275596
2369,0.1564027309
2370,0.1564027309
2371,0.1466275596
2372,0.1564027309
2373,0.1661779165
2374,0.1368523955
2375,0.1368523955
2376,0.1368523955
2377,0.1368523955
2378,0.1173020482
2379,0.1368523955
2380,0.1368523955
2381,0.1270772218
2382,0.1270772218
2383,0.1368523955
2384,0.1270772218
2385,0.1270772218
2386,0.1368523955
2387,0.1368523955
2388,0.1368523955
2389,0.1173020482
2390,0.1270772218
2391,0.1368523955
2392,0.1368523955
2393,0.1270772218
2394,0.1368523955
2395,0.1466275596
2396,0.1368523955
2397,0.1564027309
2398,0.1564027309
2399,0.1368523955
2400,0.1368523955
2401,0.1270772218
2402,0.1173020482
2403,0.1368523955
2404,0.1368523955
2405,0.1368523955
2406,0.1270772218
2407,0.1368523955
2408,0.1270772218
2409,0.1173020482
2410,0.1270772218
2411,0.1368523955
2412,0.1466275596
2413,0.1368523955
2414,0.1368523955
2415,0.1270772218
2416,0.1270772218
2417,0.1466275596
2418,0.1466275596
2419,0.1368523955
2420,0.1466275596
2421,0.1270772218
2422,0.1173020482
2423,0.1173020482
2424,0.1173020482
2425,0.1075268864
2426,0.1270772218
2427,0.1173020482
2428,0.1173020482
2429,0.1466275596
2430,0.1270772218
2431,0.1173020482
