0,0.0586510229
1,0.4105571746
2,0.5474095821
3,0.6060606002
4,0.6158357620
5,0.5767350673
6,0.4692081928
7,0.3910068321
8,0.3225806236
9,0.2737047910
10,0.2346040964
11,0.2052785873
12,0.1857282543
13,0.1661779165
14,0.1661779165
15,0.1759530782
16,0.1564027309
17,0.1466275596
18,0.1368523955
19,0.1466275596
20,0.1368523955
21,0.1270772218
22,0.1270772218
23,0.1173020482
24,0.1075268864
25,0.0977517032
26,0.0977517032
27,0.0977517032
28,0.0977517032
29,0.0977517032
30,0.0879765415
31,0.0782013654
32,0.0977517032
33,0.1075268864
34,0.0879765415
35,0.0977517032
36,0.0977517032
37,0.0977517032
38,0.0977517032
39,0.0977517032
40,0.0977517032
41,0.0879765415
42,0.0879765415
43,0.0879765415
44,0.0879765415
45,0.0782013654
46,0.0782013654
47,0.0782013654
48,0.0879765415
49,0.0879765415
50,0.0977517032
51,0.1075268864
52,0.1075268864
53,0.0977517032
54,0.0977517032
55,0.0879765415
56,0.0977517032
57,0.1075268864
58,0.1075268864
59,0.0977517032
60,0.0879765415
61,0.0879765415
62,0.0879765415
63,0.0782013654
64,0.0782013654
65,0.1075268864
66,0.1075268864
67,0.1173020482
68,0.1173020482
69,0.1368523955
70,0.1564027309
71,0.1466275596
72,0.1564027309
73,0.1564027309
74,0.1466275596
75,0.1368523955
76,0.1368523955
77,0.1368523955
78,0.1270772218
79,0.1270772218
80,0.1466275596
81,0.1564027309
82,0.1368523955
83,0.1270772218
84,0.1368523955
85,0.1368523955
86,0.1368523955
87,0.1270772218
88,0.1270772218
89,0.1173020482
90,0.1270772218
91,0.1270772218
92,0.1173020482
93,0.1270772218
94,0.1368523955
95,0.1173020482
96,0.1075268864
97,0.0977517032
98,0.0879765415
99,0.0782013654
100,0.0977517032
101,0.0977517032
102,0.0782013654
103,0.0684261989
104,0.0684261989
105,0.0684261989
106,0.0586510229
107,0.0488758516
108,0.0391006832
109,0.0488758516
110,0.0488758516
111,0.0391006832
112,0.0391006832
113,0.0488758516
114,0.0684261989
115,0.0586510229
116,0.0586510229
117,0.0586510229
118,0.0782013654
119,0.0684261989
120,0.0684261989
121,0.0879765415
122,0.0879765415
123,0.0782013654
124,0.0586510229
125,0.0782013654
126,0.0782013654
127,0.0684261989
128,0.0488758516
129,0.0488758516
130,0.0586510229
131,0.0782013654
132,0.0879765415
133,0.0782013654
134,0.0782013654
135,0.0782013654
136,0.0684261989
137,0.0684261989
138,0.0684261989
139,0.0586510229
140,0.0488758516
141,0.0391006832
142,0.0391006832
143,0.0391006832
144,0.0195503416
145,0.0195503416
146,0.0195503416
147,0.0097751703
148,0.0097751703
149,0.0097751703
150,0.0097751703
151,0.0097751703
152,0.0097751703
153,0.0097751703
154,0.0195503416
155,0.0097751703
156,0.0097751703
157,0.0195503416
158,0.0195503416
159,0.0195503416
160,0.0195503416
161,0.0195503416
162,0.0195503416
163,0.0195503416
164,0.0195503416
165,0.0097751703
166,0.0097751703
167,0.0097751703
168,0.0000000000
169,0.0000000000
170,0.0000000000
171,0.0000000000
172,0.0000000000
173,0.0000000000
174,0.0000000000
175,0.0000000000
176,0.0000000000
177,0.0000000000
178,0.0000000000
179,0.0000000000
180,0.0000000000
181,0.0000000000
182,0.0000000000
183,0.0000000000
184,0.0000000000
185,0.0000000000
186,0.0000000000
187,0.0000000000
188,0.0000000000
189,0.0000000000
190,0.0000000000
191,0.0097751703
192,0.0097751703
193,0.0097751703
194,0.0000000000
195,0.0000000000
196,0.0000000000
197,0.0000000000
198,0.0000000000
199,0.0000000000
200,0.0000000000
201,0.0000000000
202,0.0000000000
203,0.0000000000
204,0.0000000000
205,0.0000000000
206,0.0000000000
207,0.0000000000
208,0.0000000000
209,0.0000000000
210,0.0000000000
211,0.0000000000
212,0.0000000000
213,0.0000000000
214,0.0000000000
215,0.0097751703
216,0.0097751703
217,0.0000000000
218,0.0000000000
219,0.0097751703
220,0.0097751703
221,0.0000000000
222,0.0000000000
223,0.0000000000
224,0.0000000000
225,0.0000000000
226,0.0000000000
227,0.0000000000
228,0.0000000000
229,0.0000000000
230,0.0000000000
231,0.0000000000
232,0.0000000000
233,0.0000000000
234,0.0000000000
235,0.0000000000
236,0.0000000000
237,0.0000000000
238,0.0000000000
239,0.0000000000
240,0.0000000000
241,0.0000000000
242,0.0097751703
243,0.0000000000
244,0.0097751703
245,0.0097751703
246,0.0097751703
247,0.0097751703
248,0.0097751703
249,0.0097751703
250,0.0097751703
251,0.0000000000
252,0.0000000000
253,0.0000000000
254,0.0000000000
255,0.0000000000
256,0.0000000000
257,0.0000000000
258,0.0000000000
259,0.0000000000
260,0.0000000000
261,0.0000000000
262,0.0000000000
263,0.0000000000
264,0.0000000000
265,0.0000000000
266,0.0000000000
267,0.0000000000
268,0.0000000000
269,0.0000000000
270,0.0000000000
271,0.0000000000
272,0.0000000000
273,0.0000000000
274,0.0000000000
275,0.0097751703
276,0.0097751703
277,0.0000000000
278,0.0000000000
279,0.0000000000
280,0.0000000000
281,0.0000000000
282,0.0000000000
283,0.0097751703
284,0.0000000000
285,0.0000000000
286,0.0000000000
287,0.0000000000
288,0.0000000000
289,0.0000000000
290,0.0000000000
291,0.0000000000
292,0.0000000000
293,0.0000000000
294,0.0000000000
295,0.0000000000
296,0.0000000000
297,0.0000000000
298,0.0000000000
299,0.0000000000
300,0.0000000000
301,0.0000000000
302,0.0000000000
303,0.0000000000
304,0.0000000000
305,0.0000000000
306,0.0097751703
307,0.0097751703
308,0.0195503416
309,0.0293255119
310,0.0391006832
311,0.0488758516
312,0.0684261989
313,0.0782013654
314,0.0782013654
315,0.0879765415
316,0.0977517032
317,0.1075268864
318,0.1075268864
319,0.1075268864
320,0.1173020482
321,0.1270772218
322,0.1759530782
323,0.1759530782
324,0.1857282543
325,0.1661779165
326,0.1661779165
327,0.1661779165
328,0.2052785873
329,0.2248289346
330,0.2541544437
331,0.2541544437
332,0.2346040964
333,0.2150537729
334,0.2052785873
335,0.1857282543
336,0.1955034160
337,0.1955034160
338,0.1955034160
339,0.2150537729
340,0.1857282543
341,0.1466275596
342,0.1368523955
343,0.1368523955
344,0.1270772218
345,0.1270772218
346,0.1368523955
347,0.1173020482
348,0.0977517032
349,0.0879765415
350,0.0879765415
351,0.0684261989
352,0.0684261989
353,0.0684261989
354,0.0782013654
355,0.0879765415
356,0.0879765415
357,0.0782013654
358,0.0879765415
359,0.0782013654
360,0.1173020482
361,0.0684261989
362,0.0684261989
363,0.0684261989
364,0.0586510229
365,0.0586510229
366,0.0684261989
367,0.0586510229
368,0.0488758516
369,0.0586510229
370,0.0488758516
371,0.0586510229
372,0.0391006832
373,0.0391006832
374,0.0391006832
375,0.0488758516
376,0.0391006832
377,0.0293255119
378,0.0293255119
379,0.0391006832
380,0.0391006832
381,0.0293255119
382,0.0195503416
383,0.0195503416
384,0.0195503416
385,0.0195503416
386,0.0195503416
387,0.0097751703
388,0.0097751703
389,0.0097751703
390,0.0097751703
391,0.0097751703
392,0.0097751703
393,0.0097751703
394,0.0195503416
395,0.0293255119
396,0.0195503416
397,0.0195503416
398,0.0195503416
399,0.0195503416
400,0.0293255119
401,0.0391006832
402,0.0293255119
403,0.0293255119
404,0.0293255119
405,0.0293255119
406,0.0195503416
407,0.0097751703
408,0.0097751703
409,0.0097751703
410,0.0097751703
411,0.0000000000
412,0.0195503416
413,0.0195503416
414,0.0097751703
415,0.0195503416
416,0.0195503416
417,0.0195503416
418,0.0195503416
419,0.0195503416
420,0.0195503416
421,0.0195503416
422,0.0195503416
423,0.0195503416
424,0.0097751703
425,0.0097751703
426,0.0097751703
427,0.0195503416
428,0.0195503416
429,0.0195503416
430,0.0195503416
431,0.0293255119
432,0.0293255119
433,0.0391006832
434,0.0391006832
435,0.0488758516
436,0.0488758516
437,0.0684261989
438,0.0684261989
439,0.0782013654
440,0.1075268864
441,0.1270772218
442,0.1564027309
443,0.1661779165
444,0.1955034160
445,0.1955034160
446,0.1759530782
447,0.1564027309
448,0.1466275596
449,0.1466275596
450,0.1759530782
451,0.1955034160
452,0.1857282543
453,0.1661779165
454,0.1759530782
455,0.1955034160
456,0.1955034160
457,0.1955034160
458,0.1955034160
459,0.1857282543
460,0.1661779165
461,0.1466275596
462,0.1368523955
463,0.1173020482
464,0.1173020482
465,0.1173020482
466,0.1075268864
467,0.0879765415
468,0.0879765415
469,0.0879765415
470,0.0782013654
471,0.0782013654
472,0.0782013654
473,0.0782013654
474,0.0782013654
475,0.0684261989
476,0.0684261989
477,0.0684261989
478,0.0684261989
479,0.0782013654
480,0.0782013654
481,0.0684261989
482,0.0586510229
483,0.0684261989
484,0.0684261989
485,0.0488758516
486,0.0488758516
487,0.0391006832
488,0.0586510229
489,0.0586510229
490,0.0488758516
491,0.0586510229
492,0.0488758516
493,0.0488758516
494,0.0488758516
495,0.0586510229
496,0.0488758516
497,0.0488758516
498,0.0391006832
499,0.0391006832
500,0.0293255119
501,0.0293255119
502,0.0293255119
503,0.0293255119
504,0.0293255119
505,0.0293255119
506,0.0293255119
507,0.0293255119
508,0.0293255119
509,0.0293255119
510,0.0293255119
511,0.0195503416
512,0.0195503416
513,0.0195503416
514,0.0097751703
515,0.0097751703
516,0.0097751703
517,0.0195503416
518,0.0097751703
519,0.0097751703
520,0.0097751703
521,0.0097751703
522,0.0097751703
523,0.0293255119
524,0.0488758516
525,0.0586510229
526,0.0977517032
527,0.0879765415
528,0.0782013654
529,0.0782013654
530,0.0586510229
531,0.0586510229
532,0.0586510229
533,0.0586510229
534,0.0586510229
535,0.0586510229
536,0.0488758516
537,0.0488758516
538,0.0391006832
539,0.0391006832
540,0.0293255119
541,0.0293255119
542,0.0293255119
543,0.0195503416
544,0.0195503416
545,0.0195503416
546,0.0097751703
547,0.0097751703
548,0.0195503416
549,0.0097751703
550,0.0195503416
551,0.0195503416
552,0.0195503416
553,0.0195503416
554,0.0293255119
555,0.0391006832
556,0.0684261989
557,0.0586510229
558,0.0879765415
559,0.0977517032
560,0.0879765415
561,0.0977517032
562,0.1075268864
563,0.1270772218
564,0.1270772218
565,0.1270772218
566,0.1270772218
567,0.1368523955
568,0.1173020482
569,0.1173020482
570,0.1075268864
571,0.1466275596
572,0.1661779165
573,0.1955034160
574,0.1955034160
575,0.1759530782
576,0.1759530782
577,0.1955034160
578,0.1661779165
579,0.1466275596
580,0.1270772218
581,0.1368523955
582,0.1270772218
583,0.1368523955
584,0.1173020482
585,0.1173020482
586,0.0977517032
587,0.0879765415
588,0.0879765415
589,0.0782013654
590,0.0782013654
591,0.0782013654
592,0.0782013654
593,0.0684261989
594,0.0684261989
595,0.0684261989
596,0.0586510229
597,0.0488758516
598,0.0586510229
599,0.0586510229
600,0.0586510229
601,0.0488758516
602,0.0586510229
603,0.0586510229
604,0.0488758516
605,0.0391006832
606,0.0488758516
607,0.0586510229
608,0.0488758516
609,0.0488758516
610,0.0488758516
611,0.0684261989
612,0.0586510229
613,0.0488758516
614,0.0488758516
615,0.0488758516
616,0.0488758516
617,0.0391006832
618,0.0488758516
619,0.0391006832
620,0.0391006832
621,0.0391006832
622,0.0488758516
623,0.0488758516
624,0.0391006832
625,0.0293255119
626,0.0293255119
627,0.0391006832
628,0.0293255119
629,0.0293255119
630,0.0293255119
631,0.0293255119
632,0.0293255119
633,0.0293255119
634,0.0195503416
635,0.0293255119
636,0.0293255119
637,0.0293255119
638,0.0293255119
639,0.0195503416
640,0.0293255119
641,0.0195503416
642,0.0195503416
643,0.0195503416
644,0.0097751703
645,0.0097751703
646,0.0097751703
647,0.0097751703
648,0.0000000000
649,0.0000000000
650,0.0000000000
651,0.0000000000
652,0.0000000000
653,0.0097751703
654,0.0195503416
655,0.0293255119
656,0.0293255119
657,0.0195503416
658,0.0195503416
659,0.0293255119
660,0.0195503416
661,0.0293255119
662,0.0293255119
663,0.0293255119
664,0.0293255119
665,0.0391006832
666,0.0391006832
667,0.0293255119
668,0.0293255119
669,0.0293255119
670,0.0293255119
671,0.0195503416
672,0.0195503416
673,0.0097751703
674,0.0097751703
675,0.0097751703
676,0.0097751703
677,0.0097751703
678,0.0000000000
679,0.0000000000
680,0.0097751703
681,0.0097751703
682,0.0097751703
683,0.0097751703
684,0.0097751703
685,0.0097751703
686,0.0097751703
687,0.0097751703
688,0.0097751703
689,0.0195503416
690,0.0195503416
691,0.0195503416
692,0.0293255119
693,0.0391006832
694,0.0391006832
695,0.0684261989
696,0.0879765415
697,0.1173020482
698,0.1564027309
699,0.1759530782
700,0.1661779165
701,0.1466275596
702,0.1466275596
703,0.1368523955
704,0.1173020482
705,0.1270772218
706,0.1173020482
707,0.1270772218
708,0.1759530782
709,0.1857282543
710,0.1759530782
711,0.1759530782
712,0.1759530782
713,0.1857282543
714,0.2052785873
715,0.1955034160
716,0.1857282543
717,0.1759530782
718,0.1759530782
719,0.2052785873
720,0.2052785873
721,0.1955034160
722,0.1759530782
723,0.1759530782
724,0.1759530782
725,0.1759530782
726,0.1466275596
727,0.1466275596
728,0.1466275596
729,0.1368523955
730,0.1173020482
731,0.1075268864
732,0.1075268864
733,0.1075268864
734,0.0977517032
735,0.0879765415
736,0.0879765415
737,0.0782013654
738,0.0977517032
739,0.0879765415
740,0.0684261989
741,0.0782013654
742,0.0879765415
743,0.0879765415
744,0.0684261989
745,0.0684261989
746,0.0684261989
747,0.0586510229
748,0.0586510229
749,0.0586510229
750,0.0586510229
751,0.0684261989
752,0.0684261989
753,0.0586510229
754,0.0684261989
755,0.0586510229
756,0.0586510229
757,0.0488758516
758,0.0488758516
759,0.0586510229
760,0.0488758516
761,0.0391006832
762,0.0488758516
763,0.0488758516
764,0.0488758516
765,0.0488758516
766,0.0391006832
767,0.0293255119
768,0.0293255119
769,0.0195503416
770,0.0293255119
771,0.0195503416
772,0.0195503416
773,0.0195503416
774,0.0195503416
775,0.0195503416
776,0.0195503416
777,0.0195503416
778,0.0195503416
779,0.0097751703
780,0.0097751703
781,0.0097751703
782,0.0097751703
783,0.0000000000
784,0.0000000000
785,0.0000000000
786,0.0000000000
787,0.0000000000
788,0.0000000000
789,0.0097751703
790,0.0195503416
791,0.0195503416
792,0.0586510229
793,0.0782013654
794,0.0586510229
795,0.0586510229
796,0.0586510229
797,0.0586510229
798,0.0488758516
799,0.0488758516
800,0.0391006832
801,0.0586510229
802,0.0782013654
803,0.0684261989
804,0.0684261989
805,0.0684261989
806,0.0586510229
807,0.0488758516
808,0.0391006832
809,0.0391006832
810,0.0293255119
811,0.0293255119
812,0.0391006832
813,0.0391006832
814,0.0391006832
815,0.0391006832
816,0.0488758516
817,0.0586510229
818,0.0684261989
819,0.0684261989
820,0.0782013654
821,0.1075268864
822,0.0977517032
823,0.0879765415
824,0.1075268864
825,0.1075268864
826,0.1075268864
827,0.1173020482
828,0.1173020482
829,0.1075268864
830,0.0977517032
831,0.0977517032
832,0.0977517032
833,0.1173020482
834,0.1368523955
835,0.1661779165
836,0.1661779165
837,0.1564027309
838,0.1661779165
839,0.1368523955
840,0.1368523955
841,0.1368523955
842,0.1466275596
843,0.1466275596
844,0.1857282543
845,0.1955034160
846,0.1857282543
847,0.1955034160
848,0.1759530782
849,0.1661779165
850,0.1759530782
851,0.1759530782
852,0.1661779165
853,0.1564027309
854,0.1759530782
855,0.1661779165
856,0.1466275596
857,0.1466275596
858,0.1466275596
859,0.1368523955
860,0.1368523955
861,0.1368523955
862,0.1173020482
863,0.1270772218
864,0.1173020482
865,0.1075268864
866,0.0977517032
867,0.0879765415
868,0.0879765415
869,0.0782013654
870,0.0977517032
871,0.0782013654
872,0.0684261989
873,0.0879765415
874,0.0879765415
875,0.0879765415
876,0.0782013654
877,0.0684261989
878,0.0782013654
879,0.0684261989
880,0.0684261989
881,0.0684261989
882,0.0684261989
883,0.0684261989
884,0.0684261989
885,0.0684261989
886,0.0782013654
887,0.0684261989
888,0.0684261989
889,0.0684261989
890,0.0586510229
891,0.0684261989
892,0.0684261989
893,0.0684261989
894,0.0586510229
895,0.0488758516
896,0.0684261989
897,0.0586510229
898,0.0586510229
899,0.0488758516
900,0.0488758516
901,0.0488758516
902,0.0488758516
903,0.0391006832
904,0.0391006832
905,0.0391006832
906,0.0488758516
907,0.0488758516
908,0.0488758516
909,0.0391006832
910,0.0391006832
911,0.0391006832
912,0.0293255119
913,0.0293255119
914,0.0293255119
915,0.0293255119
916,0.0293255119
917,0.0293255119
918,0.0293255119
919,0.0195503416
920,0.0195503416
921,0.0097751703
922,0.0097751703
923,0.0097751703
924,0.0097751703
925,0.0097751703
926,0.0097751703
927,0.0097751703
928,0.0000000000
929,0.0097751703
930,0.0391006832
931,0.0586510229
932,0.0586510229
933,0.0488758516
934,0.0488758516
935,0.0488758516
936,0.0586510229
937,0.0488758516
938,0.0391006832
939,0.0293255119
940,0.0293255119
941,0.0293255119
942,0.0195503416
943,0.0097751703
944,0.0097751703
945,0.0000000000
946,0.0097751703
947,0.0000000000
948,0.0000000000
949,0.0000000000
950,0.0000000000
951,0.0000000000
952,0.0000000000
953,0.0097751703
954,0.0195503416
955,0.0195503416
956,0.0391006832
957,0.0391006832
958,0.0586510229
959,0.0488758516
960,0.0488758516
961,0.0684261989
962,0.0879765415
963,0.0684261989
964,0.0684261989
965,0.0782013654
966,0.0879765415
967,0.0879765415
968,0.0977517032
969,0.1075268864
970,0.0879765415
971,0.0879765415
972,0.0879765415
973,0.0977517032
974,0.1173020482
975,0.1173020482
976,0.1173020482
977,0.1173020482
978,0.1075268864
979,0.1955034160
980,0.2248289346
981,0.2052785873
982,0.1857282543
983,0.1857282543
984,0.1857282543
985,0.2248289346
986,0.2248289346
987,0.2346040964
988,0.2150537729
989,0.2248289346
990,0.2248289346
991,0.2052785873
992,0.1955034160
993,0.1759530782
994,0.1955034160
995,0.1857282543
996,0.1955034160
997,0.1857282543
998,0.1661779165
999,0.1661779165
1000,0.1759530782
1001,0.4105571746
1002,0.3519061565
1003,0.3030303001
1004,0.2639296054
1005,0.2248289346
1006,0.1857282543
1007,0.1564027309
1008,0.1270772218
1009,0.1075268864
1010,0.1173020482
1011,0.1075268864
1012,0.0977517032
1013,0.0782013654
1014,0.0782013654
1015,0.0879765415
1016,0.0782013654
1017,0.0684261989
1018,0.0586510229
1019,0.0684261989
1020,0.0586510229
1021,0.0586510229
1022,0.0586510229
1023,0.0391006832
1024,0.0488758516
1025,0.0488758516
1026,0.0293255119
1027,0.0391006832
1028,0.0391006832
1029,0.0391006832
1030,0.0391006832
1031,0.0293255119
1032,0.0391006832
1033,0.0391006832
1034,0.0391006832
1035,0.0391006832
1036,0.0391006832
1037,0.0391006832
1038,0.0391006832
1039,0.0391006832
1040,0.0391006832
1041,0.0488758516
1042,0.0488758516
1043,0.0391006832
1044,0.0391006832
1045,0.0391006832
1046,0.0391006832
1047,0.0293255119
1048,0.0293255119
1049,0.0293255119
1050,0.0293255119
1051,0.0293255119
1052,0.0195503416
1053,0.0195503416
1054,0.0195503416
1055,0.0293255119
1056,0.0391006832
1057,0.0391006832
1058,0.0293255119
1059,0.0195503416
1060,0.0097751703
1061,0.0097751703
1062,0.0097751703
1063,0.0097751703
1064,0.0097751703
1065,0.0097751703
1066,0.0195503416
1067,0.0195503416
1068,0.0195503416
1069,0.0195503416
1070,0.0097751703
1071,0.0097751703
1072,0.0097751703
1073,0.0097751703
1074,0.0097751703
1075,0.0097751703
1076,0.0195503416
1077,0.0195503416
1078,0.0097751703
1079,0.0097751703
1080,0.0000000000
1081,0.0000000000
1082,0.0000000000
1083,0.0097751703
1084,0.0000000000
1085,0.0000000000
1086,0.0000000000
1087,0.0000000000
1088,0.0000000000
1089,0.0000000000
1090,0.0000000000
1091,0.0000000000
1092,0.0000000000
1093,0.0097751703
1094,0.0097751703
1095,0.0097751703
1096,0.0195503416
1097,0.0293255119
1098,0.0293255119
1099,0.0391006832
1100,0.0391006832
1101,0.0391006832
1102,0.0488758516
1103,0.0391006832
1104,0.0488758516
1105,0.0488758516
1106,0.0586510229
1107,0.0488758516
1108,0.0586510229
1109,0.0586510229
1110,0.0684261989
1111,0.0879765415
1112,0.0879765415
1113,0.0879765415
1114,0.0782013654
1115,0.0782013654
1116,0.0977517032
1117,0.1075268864
1118,0.0977517032
1119,0.0977517032
1120,0.1173020482
1121,0.1368523955
1122,0.1466275596
1123,0.1270772218
1124,0.1173020482
1125,0.1466275596
1126,0.1466275596
1127,0.1466275596
1128,0.1564027309
1129,0.1564027309
1130,0.1368523955
1131,0.1368523955
1132,0.1564027309
1133,0.1661779165
1134,0.1564027309
1135,0.1466275596
1136,0.1368523955
1137,0.1270772218
1138,0.1173020482
1139,0.1075268864
1140,0.1075268864
1141,0.0977517032
1142,0.0879765415
1143,0.0782013654
1144,0.0684261989
1145,0.0684261989
1146,0.0684261989
1147,0.0586510229
1148,0.0586510229
1149,0.0586510229
1150,0.0586510229
1151,0.0684261989
1152,0.0684261989
1153,0.0586510229
1154,0.0586510229
1155,0.0586510229
1156,0.0684261989
1157,0.0586510229
1158,0.0586510229
1159,0.0684261989
1160,0.0586510229
1161,0.0586510229
1162,0.0684261989
1163,0.0586510229
1164,0.0586510229
1165,0.0586510229
1166,0.0488758516
1167,0.0488758516
1168,0.0391006832
1169,0.0488758516
1170,0.0391006832
1171,0.0391006832
1172,0.0391006832
1173,0.0391006832
1174,0.0391006832
1175,0.0293255119
1176,0.0293255119
1177,0.0488758516
1178,0.0488758516
1179,0.0488758516
1180,0.0391006832
1181,0.0391006832
1182,0.0293255119
1183,0.0293255119
1184,0.0293255119
1185,0.0293255119
1186,0.0195503416
1187,0.0195503416
1188,0.0293255119
1189,0.0293255119
1190,0.0391006832
1191,0.0293255119
1192,0.0391006832
1193,0.0391006832
1194,0.0391006832
1195,0.0293255119
1196,0.0195503416
1197,0.0195503416
1198,0.0195503416
1199,0.0195503416
1200,0.0195503416
1201,0.0195503416
1202,0.0195503416
1203,0.0195503416
1204,0.0097751703
1205,0.0097751703
1206,0.0097751703
1207,0.0097751703
1208,0.0097751703
1209,0.0097751703
1210,0.0097751703
1211,0.0097751703
1212,0.0097751703
1213,0.0000000000
1214,0.0000000000
1215,0.0000000000
1216,0.0000000000
1217,0.0097751703
1218,0.0097751703
1219,0.0195503416
1220,0.0195503416
1221,0.0293255119
1222,0.0293255119
1223,0.0391006832
1224,0.0293255119
1225,0.0195503416
1226,0.0293255119
1227,0.0391006832
1228,0.0293255119
1229,0.0293255119
1230,0.0293255119
1231,0.0293255119
1232,0.0293255119
1233,0.0391006832
1234,0.0293255119
1235,0.0293255119
1236,0.0391006832
1237,0.0488758516
1238,0.0391006832
1239,0.0391006832
1240,0.0391006832
1241,0.0488758516
1242,0.0684261989
1243,0.0586510229
1244,0.0684261989
1245,0.0684261989
1246,0.0782013654
1247,0.0684261989
1248,0.0782013654
1249,0.1173020482
1250,0.1564027309
1251,0.1368523955
1252,0.1368523955
1253,0.1270772218
1254,0.1368523955
1255,0.1564027309
1256,0.1759530782
1257,0.1759530782
1258,0.1857282543
1259,0.1857282543
1260,0.1661779165
1261,0.1564027309
1262,0.1564027309
1263,0.1857282543
1264,0.1955034160
1265,0.1857282543
1266,0.1564027309
1267,0.1368523955
1268,0.1368523955
1269,0.1173020482
1270,0.0977517032
1271,0.1173020482
1272,0.1173020482
1273,0.0977517032
1274,0.1075268864
1275,0.0977517032
1276,0.1075268864
1277,0.1173020482
1278,0.1075268864
1279,0.1173020482
1280,0.1075268864
1281,0.1075268864
1282,0.0879765415
1283,0.0879765415
1284,0.0977517032
1285,0.0879765415
1286,0.0879765415
1287,0.0879765415
1288,0.1075268864
1289,0.0977517032
1290,0.0879765415
1291,0.0879765415
1292,0.1075268864
1293,0.0977517032
1294,0.0782013654
1295,0.0684261989
1296,0.0488758516
1297,0.0586510229
1298,0.0586510229
1299,0.0586510229
1300,0.0586510229
1301,0.0684261989
1302,0.0586510229
1303,0.0684261989
1304,0.0684261989
1305,0.0684261989
1306,0.0586510229
1307,0.0488758516
1308,0.0684261989
1309,0.0684261989
1310,0.0586510229
1311,0.0586510229
1312,0.0488758516
1313,0.0391006832
1314,0.0488758516
1315,0.0391006832
1316,0.0293255119
1317,0.0293255119
1318,0.0293255119
1319,0.0293255119
1320,0.0195503416
1321,0.0097751703
1322,0.0097751703
1323,0.0097751703
1324,0.0097751703
1325,0.0097751703
1326,0.0097751703
1327,0.0097751703
1328,0.0097751703
1329,0.0097751703
1330,0.0097751703
1331,0.0195503416
1332,0.0097751703
1333,0.0195503416
1334,0.0097751703
1335,0.0097751703
1336,0.0097751703
1337,0.0097751703
1338,0.0000000000
1339,0.0097751703
1340,0.0097751703
1341,0.0097751703
1342,0.0000000000
1343,0.0000000000
1344,0.0000000000
1345,0.0000000000
1346,0.0000000000
1347,0.0000000000
1348,0.0000000000
1349,0.0000000000
1350,0.0000000000
1351,0.0000000000
1352,0.0000000000
1353,0.0195503416
1354,0.0097751703
1355,0.0097751703
1356,0.0097751703
1357,0.0195503416
1358,0.0195503416
1359,0.0195503416
1360,0.0195503416
1361,0.0293255119
1362,0.0293255119
1363,0.0391006832
1364,0.0488758516
1365,0.0586510229
1366,0.0488758516
1367,0.0586510229
1368,0.0586510229
1369,0.0782013654
1370,0.1075268864
1371,0.1173020482
1372,0.1270772218
1373,0.1173020482
1374,0.1270772218
1375,0.1368523955
1376,0.1466275596
1377,0.1466275596
1378,0.1857282543
1379,0.1857282543
1380,0.1759530782
1381,0.1564027309
1382,0.1466275596
1383,0.1759530782
1384,0.1661779165
1385,0.1759530782
1386,0.1759530782
1387,0.1661779165
1388,0.1857282543
1389,0.1857282543
1390,0.1955034160
1391,0.1759530782
1392,0.1564027309
1393,0.1564027309
1394,0.1466275596
1395,0.1466275596
1396,0.1368523955
1397,0.1173020482
1398,0.1173020482
1399,0.0977517032
1400,0.0977517032
1401,0.0977517032
1402,0.0977517032
1403,0.0977517032
1404,0.0879765415
1405,0.0879765415
1406,0.0782013654
1407,0.0879765415
1408,0.0879765415
1409,0.0879765415
1410,0.0782013654
1411,0.0782013654
1412,0.0782013654
1413,0.0879765415
1414,0.0684261989
1415,0.0586510229
1416,0.0586510229
1417,0.0684261989
1418,0.0586510229
1419,0.0586510229
1420,0.0488758516
1421,0.0586510229
1422,0.0586510229
1423,0.0586510229
1424,0.0488758516
1425,0.0488758516
1426,0.0391006832
1427,0.0391006832
1428,0.0391006832
1429,0.0391006832
1430,0.0391006832
1431,0.0293255119
1432,0.0391006832
1433,0.0391006832
1434,0.0488758516
1435,0.0586510229
1436,0.0586510229
1437,0.0586510229
1438,0.0586510229
1439,0.0586510229
1440,0.0488758516
1441,0.0391006832
1442,0.0293255119
1443,0.0293255119
1444,0.0293255119
1445,0.0391006832
1446,0.0391006832
1447,0.0391006832
1448,0.0293255119
1449,0.0293255119
1450,0.0195503416
1451,0.0195503416
1452,0.0195503416
1453,0.0195503416
1454,0.0195503416
1455,0.0195503416
1456,0.0293255119
1457,0.0293255119
1458,0.0293255119
1459,0.0293255119
1460,0.0195503416
1461,0.0195503416
1462,0.0097751703
1463,0.0195503416
1464,0.0195503416
1465,0.0097751703
1466,0.0097751703
1467,0.0097751703
1468,0.0195503416
1469,0.0097751703
1470,0.0097751703
1471,0.0097751703
1472,0.0097751703
1473,0.0097751703
1474,0.0097751703
1475,0.0097751703
1476,0.0195503416
1477,0.0293255119
1478,0.0293255119
1479,0.0293255119
1480,0.0293255119
1481,0.0293255119
1482,0.0293255119
1483,0.0391006832
1484,0.0586510229
1485,0.0586510229
1486,0.0586510229
1487,0.0684261989
1488,0.0586510229
1489,0.0684261989
1490,0.0684261989
1491,0.0586510229
1492,0.0586510229
1493,0.0684261989
1494,0.0977517032
1495,0.1368523955
1496,0.1270772218
1497,0.1270772218
1498,0.1368523955
1499,0.1466275596
1500,0.1270772218
1501,0.1368523955
1502,0.1368523955
1503,0.1075268864
1504,0.1368523955
1505,0.1368523955
1506,0.1368523955
1507,0.1368523955
1508,0.1368523955
1509,0.1368523955
1510,0.1466275596
1511,0.1759530782
1512,0.2150537729
1513,0.1857282543
1514,0.1955034160
1515,0.2443792819
1516,0.2052785873
1517,0.1857282543
1518,0.1661779165
1519,0.1857282543
1520,0.1759530782
1521,0.1564027309
1522,0.1466275596
1523,0.1270772218
1524,0.1173020482
1525,0.0977517032
1526,0.0977517032
1527,0.0977517032
1528,0.0879765415
1529,0.1075268864
1530,0.1075268864
1531,0.0977517032
1532,0.0879765415
1533,0.0782013654
1534,0.0782013654
1535,0.0782013654
1536,0.0879765415
1537,0.0782013654
1538,0.0684261989
1539,0.0684261989
1540,0.0879765415
1541,0.0879765415
1542,0.0782013654
1543,0.0879765415
1544,0.0977517032
1545,0.0977517032
1546,0.0879765415
1547,0.0879765415
1548,0.0684261989
1549,0.0684261989
1550,0.0684261989
1551,0.0782013654
1552,0.0684261989
1553,0.0586510229
1554,0.0586510229
1555,0.0586510229
1556,0.0488758516
1557,0.0684261989
1558,0.0684261989
1559,0.0586510229
1560,0.0782013654
1561,0.0684261989
1562,0.0782013654
1563,0.0782013654
1564,0.0879765415
1565,0.0684261989
1566,0.0684261989
1567,0.0586510229
1568,0.0586510229
1569,0.0488758516
1570,0.0391006832
1571,0.0391006832
1572,0.0391006832
1573,0.0391006832
1574,0.0293255119
1575,0.0293255119
1576,0.0195503416
1577,0.0195503416
1578,0.0195503416
1579,0.0195503416
1580,0.0391006832
1581,0.0293255119
1582,0.0293255119
1583,0.0195503416
1584,0.0097751703
1585,0.0097751703
1586,0.0195503416
1587,0.0293255119
1588,0.0293255119
1589,0.0293255119
1590,0.0195503416
1591,0.0097751703
1592,0.0097751703
1593,0.0097751703
1594,0.0097751703
1595,0.0097751703
1596,0.0097751703
1597,0.0000000000
1598,0.0000000000
1599,0.0000000000
1600,0.0000000000
1601,0.0000000000
1602,0.0000000000
1603,0.0097751703
1604,0.0097751703
1605,0.0097751703
1606,0.0097751703
1607,0.0097751703
1608,0.0195503416
1609,0.0293255119
1610,0.0195503416
1611,0.0293255119
1612,0.0391006832
1613,0.0391006832
1614,0.0391006832
1615,0.0488758516
1616,0.0488758516
1617,0.0586510229
1618,0.0488758516
1619,0.0684261989
1620,0.0879765415
1621,0.0879765415
1622,0.0879765415
1623,0.0879765415
1624,0.0782013654
1625,0.0977517032
1626,0.1075268864
1627,0.1173020482
1628,0.1466275596
1629,0.1466275596
1630,0.1270772218
1631,0.1270772218
1632,0.1075268864
1633,0.0977517032
1634,0.1075268864
1635,0.1270772218
1636,0.1270772218
1637,0.1368523955
1638,0.1270772218
1639,0.1368523955
1640,0.1270772218
1641,0.1270772218
1642,0.1173020482
1643,0.1075268864
1644,0.1173020482
1645,0.1466275596
1646,0.1759530782
1647,0.1857282543
1648,0.1759530782
1649,0.1661779165
1650,0.1466275596
1651,0.1564027309
1652,0.1564027309
1653,0.1368523955
1654,0.1564027309
1655,0.1661779165
1656,0.1368523955
1657,0.1466275596
1658,0.1564027309
1659,0.1270772218
1660,0.1173020482
1661,0.0977517032
1662,0.0782013654
1663,0.0879765415
1664,0.0879765415
1665,0.0782013654
1666,0.0684261989
1667,0.0684261989
1668,0.0684261989
1669,0.0782013654
1670,0.0684261989
1671,0.0684261989
1672,0.0684261989
1673,0.0684261989
1674,0.0586510229
1675,0.0684261989
1676,0.0586510229
1677,0.0488758516
1678,0.0488758516
1679,0.0488758516
1680,0.0684261989
1681,0.0684261989
1682,0.0684261989
1683,0.0586510229
1684,0.0488758516
1685,0.0488758516
1686,0.0879765415
1687,0.0782013654
1688,0.0684261989
1689,0.0586510229
1690,0.0586510229
1691,0.0586510229
1692,0.0684261989
1693,0.0684261989
1694,0.0586510229
1695,0.0488758516
1696,0.0586510229
1697,0.0488758516
1698,0.0488758516
1699,0.0488758516
1700,0.0488758516
1701,0.0391006832
1702,0.0391006832
1703,0.0391006832
1704,0.0391006832
1705,0.0391006832
1706,0.0391006832
1707,0.0488758516
1708,0.0391006832
1709,0.0488758516
1710,0.0488758516
1711,0.0488758516
1712,0.0391006832
1713,0.0293255119
1714,0.0293255119
1715,0.0195503416
1716,0.0293255119
1717,0.0293255119
1718,0.0195503416
1719,0.0293255119
1720,0.0195503416
1721,0.0097751703
1722,0.0097751703
1723,0.0097751703
1724,0.0097751703
1725,0.0195503416
1726,0.0195503416
1727,0.0097751703
1728,0.0097751703
1729,0.0097751703
1730,0.0097751703
1731,0.0097751703
1732,0.0097751703
1733,0.0000000000
1734,0.0000000000
1735,0.0000000000
1736,0.0000000000
1737,0.0000000000
1738,0.0000000000
1739,0.0000000000
1740,0.0000000000
1741,0.0000000000
1742,0.0000000000
1743,0.0000000000
1744,0.0000000000
1745,0.0000000000
1746,0.0000000000
1747,0.0000000000
1748,0.0000000000
1749,0.0000000000
1750,0.0000000000
1751,0.0000000000
1752,0.0000000000
1753,0.0000000000
1754,0.0000000000
1755,0.0000000000
1756,0.0000000000
1757,0.0000000000
1758,0.0195503416
1759,0.0195503416
1760,0.0195503416
1761,0.0195503416
1762,0.0293255119
1763,0.0391006832
1764,0.0488758516
1765,0.0586510229
1766,0.0684261989
1767,0.0782013654
1768,0.0879765415
1769,0.0782013654
1770,0.0782013654
1771,0.0879765415
1772,0.0879765415
1773,0.0977517032
1774,0.0879765415
1775,0.0977517032
1776,0.1270772218
1777,0.1270772218
1778,0.1173020482
1779,0.0977517032
1780,0.1075268864
1781,0.1270772218
1782,0.1270772218
1783,0.1661779165
1784,0.1564027309
1785,0.1564027309
1786,0.1759530782
1787,0.2248289346
1788,0.1955034160
1789,0.2150537729
1790,0.2443792819
1791,0.2248289346
1792,0.2443792819
1793,0.2346040964
1794,0.2541544437
1795,0.2639296054
1796,0.2639296054
1797,0.2248289346
1798,0.2346040964
1799,0.2150537729
1800,0.2150537729
1801,0.1857282543
1802,0.1466275596
1803,0.1368523955
1804,0.1368523955
1805,0.1270772218
1806,0.1173020482
1807,0.1368523955
1808,0.1368523955
1809,0.1173020482
1810,0.1075268864
1811,0.0977517032
1812,0.0879765415
1813,0.0977517032
1814,0.0879765415
1815,0.0977517032
1816,0.0879765415
1817,0.1075268864
1818,0.0879765415
1819,0.0879765415
1820,0.0879765415
1821,0.0782013654
1822,0.0684261989
1823,0.0782013654
1824,0.0782013654
1825,0.0782013654
1826,0.0782013654
1827,0.0684261989
1828,0.0684261989
1829,0.0684261989
1830,0.0586510229
1831,0.0586510229
1832,0.0586510229
1833,0.0586510229
1834,0.0488758516
1835,0.0488758516
1836,0.0391006832
1837,0.0488758516
1838,0.0391006832
1839,0.0391006832
1840,0.0391006832
1841,0.0391006832
1842,0.0391006832
1843,0.0391006832
1844,0.0293255119
1845,0.0195503416
1846,0.0195503416
1847,0.0293255119
1848,0.0293255119
1849,0.0293255119
1850,0.0293255119
1851,0.0293255119
1852,0.0293255119
1853,0.0195503416
1854,0.0195503416
1855,0.0391006832
1856,0.0488758516
1857,0.0488758516
1858,0.0391006832
1859,0.0391006832
1860,0.0586510229
1861,0.0488758516
1862,0.0391006832
1863,0.0293255119
1864,0.0195503416
1865,0.0195503416
1866,0.0097751703
1867,0.0097751703
1868,0.0097751703
1869,0.0097751703
1870,0.0097751703
1871,0.0195503416
1872,0.0097751703
1873,0.0097751703
1874,0.0097751703
1875,0.0000000000
1876,0.0097751703
1877,0.0097751703
1878,0.0097751703
1879,0.0097751703
1880,0.0097751703
1881,0.0097751703
1882,0.0000000000
1883,0.0000000000
1884,0.0000000000
1885,0.0000000000
1886,0.0000000000
1887,0.0000000000
1888,0.0097751703
1889,0.0000000000
1890,0.0000000000
1891,0.0000000000
1892,0.0000000000
1893,0.0000000000
1894,0.0000000000
1895,0.0000000000
1896,0.0000000000
1897,0.0000000000
1898,0.0000000000
1899,0.0000000000
1900,0.0097751703
1901,0.0097751703
1902,0.0097751703
1903,0.0097751703
1904,0.0097751703
1905,0.0097751703
1906,0.0097751703
1907,0.0195503416
1908,0.0097751703
1909,0.0195503416
1910,0.0293255119
1911,0.0293255119
1912,0.0293255119
1913,0.0391006832
1914,0.0391006832
1915,0.0488758516
1916,0.0684261989
1917,0.0684261989
1918,0.0879765415
1919,0.1270772218
1920,0.1368523955
1921,0.1270772218
1922,0.1270772218
1923,0.1173020482
1924,0.1173020482
1925,0.1173020482
1926,0.1270772218
1927,0.1173020482
1928,0.1173020482
1929,0.1173020482
1930,0.1270772218
1931,0.1075268864
1932,0.1173020482
1933,0.1368523955
1934,0.1368523955
1935,0.1466275596
1936,0.1661779165
1937,0.1466275596
1938,0.1564027309
1939,0.1759530782
1940,0.1759530782
1941,0.1759530782
1942,0.1759530782
1943,0.1661779165
1944,0.2150537729
1945,0.1955034160
1946,0.1955034160
1947,0.1955034160
1948,0.1955034160
1949,0.1955034160
1950,0.1759530782
1951,0.1564027309
1952,0.1564027309
1953,0.1368523955
1954,0.1564027309
1955,0.1466275596
1956,0.1466275596
1957,0.1270772218
1958,0.1173020482
1959,0.1173020482
1960,0.0977517032
1961,0.0977517032
1962,0.0977517032
1963,0.0879765415
1964,0.0879765415
1965,0.0684261989
1966,0.0684261989
1967,0.0684261989
1968,0.0782013654
1969,0.0782013654
1970,0.0684261989
1971,0.0684261989
1972,0.0684261989
1973,0.0586510229
1974,0.0488758516
1975,0.0488758516
1976,0.0684261989
1977,0.0684261989
1978,0.0684261989
1979,0.0684261989
1980,0.0684261989
1981,0.0684261989
1982,0.0684261989
1983,0.0684261989
1984,0.0684261989
1985,0.0782013654
1986,0.0684261989
1987,0.0684261989
1988,0.0684261989
1989,0.0684261989
1990,0.0684261989
1991,0.1075268864
1992,0.0488758516
1993,0.0782013654
1994,0.0782013654
1995,0.0684261989
1996,0.0684261989
1997,0.0586510229
1998,0.0684261989
1999,0.0488758516
2000,0.0586510229
2001,1.0654937028
2002,0.8504399299
2003,0.6842619895
2004,0.5571847438
2005,0.4594330310
2006,0.3714565038
2007,0.3128054618
2008,0.2541544437
2009,0.2248289346
2010,0.1955034160
2011,0.1661779165
2012,0.1466275596
2013,0.1173020482
2014,0.0977517032
2015,0.0977517032
2016,0.0879765415
2017,0.0782013654
2018,0.0684261989
2019,0.0586510229
2020,0.0586510229
2021,0.0586510229
2022,0.0586510229
2023,0.0586510229
2024,0.0488758516
2025,0.0488758516
2026,0.0488758516
2027,0.0488758516
2028,0.0488758516
2029,0.0488758516
2030,0.0488758516
2031,0.0488758516
2032,0.0488758516
2033,0.0488758516
2034,0.0391006832
2035,0.0391006832
2036,0.0391006832
2037,0.0488758516
2038,0.0391006832
2039,0.0488758516
2040,0.0488758516
2041,0.0488758516
2042,0.0488758516
2043,0.0586510229
2044,0.0488758516
2045,0.0488758516
2046,0.0488758516
2047,0.0586510229
2048,0.0684261989
2049,0.0684261989
2050,0.0586510229
2051,0.0782013654
2052,0.0782013654
2053,0.0782013654
2054,0.0879765415
2055,0.0879765415
2056,0.0879765415
2057,0.1173020482
2058,0.1466275596
2059,0.1564027309
2060,0.1466275596
2061,0.1466275596
2062,0.1564027309
2063,0.1857282543
2064,0.2150537729
2065,0.2150537729
2066,0.2639296054
2067,0.2834799575
2068,0.3030303001
2069,0.3616813421
2070,0.3714565038
2071,0.3616813421
2072,0.4301075458
2073,0.4007820129
2074,0.4007820129
2075,0.4007820129
2076,0.4301075458
2077,0.4007820129
2078,0.3910068321
2079,0.4105571746
2080,0.4301075458
2081,0.4398827075
2082,0.4105571746
2083,0.4105571746
2084,0.4301075458
2085,0.3910068321
2086,0.3714565038
2087,0.3812316703
2088,0.3812316703
2089,0.3812316703
2090,0.3714565038
2091,0.3616813421
2092,0.3128054618
2093,0.3225806236
2094,0.3030303001
2095,0.3030303001
2096,0.3128054618
2097,0.2932551193
2098,0.2834799575
2099,0.2737047910
2100,0.2541544437
2101,0.2541544437
2102,0.2346040964
2103,0.2932551193
2104,0.2737047910
2105,0.2443792819
2106,0.2346040964
2107,0.2639296054
2108,0.2443792819
2109,0.2346040964
2110,0.2346040964
2111,0.2346040964
2112,0.2248289346
2113,0.2052785873
2114,0.2248289346
2115,0.2248289346
2116,0.2639296054
2117,0.2541544437
2118,0.2346040964
2119,0.2248289346
2120,0.2052785873
2121,0.1955034160
2122,0.2052785873
2123,0.2150537729
2124,0.2052785873
2125,0.2052785873
2126,0.2052785873
2127,0.2052785873
2128,0.1955034160
2129,0.1759530782
2130,0.1661779165
2131,0.1564027309
2132,0.1368523955
2133,0.1564027309
2134,0.1466275596
2135,0.1270772218
2136,0.1075268864
2137,0.0977517032
2138,0.1075268864
2139,0.0977517032
2140,0.0977517032
2141,0.0977517032
2142,0.0879765415
2143,0.0879765415
2144,0.0684261989
2145,0.0782013654
2146,0.0586510229
2147,0.0488758516
2148,0.0391006832
2149,0.0391006832
2150,0.0391006832
2151,0.0488758516
2152,0.0488758516
2153,0.0391006832
2154,0.0391006832
2155,0.0391006832
2156,0.0391006832
2157,0.0391006832
2158,0.0391006832
2159,0.0293255119
2160,0.0391006832
2161,0.0293255119
2162,0.0391006832
2163,0.0391006832
2164,0.0391006832
2165,0.0293255119
2166,0.0293255119
2167,0.0391006832
2168,0.0391006832
2169,0.0391006832
2170,0.0391006832
2171,0.0293255119
2172,0.0293255119
2173,0.0391006832
2174,0.0391006832
2175,0.0391006832
2176,0.0391006832
2177,0.0391006832
2178,0.0391006832
2179,0.0488758516
2180,0.0488758516
2181,0.0586510229
2182,0.0586510229
2183,0.0586510229
2184,0.0586510229
2185,0.0586510229
2186,0.0586510229
2187,0.0586510229
2188,0.0684261989
2189,0.0879765415
2190,0.0879765415
2191,0.1173020482
2192,0.1368523955
2193,0.1368523955
2194,0.1466275596
2195,0.1564027309
2196,0.1661779165
2197,0.1857282543
2198,0.1955034160
2199,0.2052785873
2200,0.2052785873
2201,0.2346040964
2202,0.2541544437
2203,0.2541544437
2204,0.2639296054
2205,0.2932551193
2206,0.2834799575
2207,0.3030303001
2208,0.3421309947
2209,0.4398827075
2210,0.4496578693
2211,0.4496578693
2212,0.5376344203
2213,0.5767350673
2214,0.5474095821
2215,0.5767350673
2216,0.5767350673
2217,0.5180840492
2218,0.5376344203
2219,0.5083088874
2220,0.4789833545
2221,0.4496578693
2222,0.4398827075
2223,0.3812316703
2224,0.3519061565
2225,0.3323558330
2226,0.3030303001
2227,0.2932551193
2228,0.2932551193
2229,0.2737047910
2230,0.2541544437
2231,0.2443792819
2232,0.2443792819
2233,0.2150537729
2234,0.1955034160
2235,0.2248289346
2236,0.1955034160
2237,0.1759530782
2238,0.1564027309
2239,0.1564027309
2240,0.1466275596
2241,0.1564027309
2242,0.1368523955
2243,0.1270772218
2244,0.1466275596
2245,0.1368523955
2246,0.1368523955
2247,0.1368523955
2248,0.1661779165
2249,0.1466275596
2250,0.1270772218
2251,0.1368523955
2252,0.1466275596
2253,0.1368523955
2254,0.1564027309
2255,0.1466275596
2256,0.1368523955
2257,0.1368523955
2258,0.1270772218
2259,0.1173020482
2260,0.1270772218
2261,0.1270772218
2262,0.1075268864
2263,0.0977517032
2264,0.1173020482
2265,0.1075268864
2266,0.1075268864
2267,0.1075268864
2268,0.0977517032
2269,0.0977517032
2270,0.0879765415
2271,0.0879765415
2272,0.0879765415
2273,0.0879765415
2274,0.0684261989
2275,0.0586510229
2276,0.0586510229
2277,0.0684261989
2278,0.0488758516
2279,0.0488758516
2280,0.0391006832
2281,0.0391006832
2282,0.0391006832
2283,0.0488758516
2284,0.0391006832
2285,0.0293255119
2286,0.0293255119
2287,0.0488758516
2288,0.0488758516
2289,0.0391006832
2290,0.0391006832
2291,0.0488758516
2292,0.0488758516
2293,0.0391006832
2294,0.0391006832
2295,0.0391006832
2296,0.0391006832
2297,0.0293255119
2298,0.0293255119
2299,0.0293255119
2300,0.0391006832
2301,0.0391006832
2302,0.0391006832
2303,0.0391006832
2304,0.0391006832
2305,0.0391006832
2306,0.0391006832
2307,0.0391006832
2308,0.0293255119
2309,0.0391006832
2310,0.0391006832
2311,0.0488758516
2312,0.0586510229
2313,0.0586510229
2314,0.0488758516
2315,0.0586510229
2316,0.0782013654
2317,0.0782013654
2318,0.0782013654
2319,0.0879765415
2320,0.0879765415
2321,0.0977517032
2322,0.1075268864
2323,0.1173020482
2324,0.1270772218
2325,0.1466275596
2326,0.1368523955
2327,0.1466275596
2328,0.1466275596
2329,0.1564027309
2330,0.1857282543
2331,0.1661779165
2332,0.1857282543
2333,0.1955034160
2334,0.2150537729
2335,0.2639296054
2336,0.2834799575
2337,0.2639296054
2338,0.2834799575
2339,0.2834799575
2340,0.3225806236
2341,0.3714565038
2342,0.4203323364
2343,0.3910068321
2344,0.4007820129
2345,0.4789833545
2346,0.4692081928
2347,0.4594330310
2348,0.5083088874
2349,0.4789833545
2350,0.4692081928
2351,0.4692081928
2352,0.4496578693
2353,0.4203323364
2354,0.3910068321
2355,0.3519061565
2356,0.3519061565
2357,0.3323558330
2358,0.3519061565
2359,0.3616813421
2360,0.3616813421
2361,0.3812316703
2362,0.3323558330
2363,0.3030303001
2364,0.3128054618
2365,0.3030303001
2366,0.2932551193
2367,0.2541544437
2368,0.2932551193
2369,0.2443792819
2370,0.2248289346
2371,0.2248289346
2372,0.2052785873
2373,0.1955034160
2374,0.1759530782
2375,0.1955034160
2376,0.1857282543
2377,0.1661779165
2378,0.1955034160
2379,0.1955034160
2380,0.2346040964
2381,0.2052785873
2382,0.1955034160
2383,0.1857282543
2384,0.1857282543
2385,0.1759530782
2386,0.1661779165
2387,0.1564027309
2388,0.1368523955
2389,0.1368523955
2390,0.1270772218
2391,0.1368523955
2392,0.1173020482
2393,0.1075268864
2394,0.1173020482
2395,0.1075268864
2396,0.0977517032
2397,0.0977517032
2398,0.0977517032
2399,0.0977517032
2400,0.0879765415
2401,0.0782013654
2402,0.0684261989
2403,0.0684261989
2404,0.0586510229
2405,0.0586510229
2406,0.0586510229
2407,0.0586510229
2408,0.0586510229
2409,0.0586510229
2410,0.0488758516
2411,0.0586510229
2412,0.0488758516
2413,0.0488758516
2414,0.0488758516
2415,0.0586510229
2416,0.0488758516
2417,0.0391006832
2418,0.0391006832
2419,0.0488758516
2420,0.0391006832
2421,0.0391006832
2422,0.0391006832
2423,0.0391006832
2424,0.0293255119
2425,0.0293255119
2426,0.0391006832
2427,0.0391006832
2428,0.0391006832
2429,0.0391006832
2430,0.0293255119
2431,0.0293255119
2432,0.0293255119
2433,0.0293255119
2434,0.0391006832
2435,0.0391006832
2436,0.0391006832
2437,0.0293255119
2438,0.0293255119
2439,0.0293255119
2440,0.0293255119
2441,0.0293255119
2442,0.0293255119
2443,0.0293255119
2444,0.0391006832
2445,0.0293255119
2446,0.0391006832
2447,0.0391006832
2448,0.0391006832
2449,0.0391006832
2450,0.0488758516
2451,0.0684261989
2452,0.0782013654
2453,0.0879765415
2454,0.0977517032
2455,0.0879765415
2456,0.0879765415
2457,0.1075268864
2458,0.1075268864
2459,0.1075268864
2460,0.1270772218
2461,0.1270772218
2462,0.1270772218
2463,0.1368523955
2464,0.1368523955
2465,0.1661779165
2466,0.1564027309
2467,0.1955034160
2468,0.2248289346
2469,0.2639296054
2470,0.2834799575
2471,0.2834799575
2472,0.2932551193
2473,0.3323558330
2474,0.3323558330
2475,0.3616813421
2476,0.3910068321
2477,0.4007820129
2478,0.3714565038
2479,0.4203323364
2480,0.4496578693
2481,0.4594330310
2482,0.4496578693
2483,0.4301075458
2484,0.4301075458
2485,0.4203323364
2486,0.4301075458
2487,0.4594330310
2488,0.3910068321
2489,0.4105571746
2490,0.4496578693
2491,0.4007820129
2492,0.4203323364
2493,0.4105571746
2494,0.4398827075
2495,0.4105571746
2496,0.3714565038
2497,0.3323558330
2498,0.3030303001
2499,0.2737047910
2500,0.2639296054
2501,0.2443792819
2502,0.2248289346
2503,0.2150537729
2504,0.2248289346
2505,0.2346040964
2506,0.2541544437
2507,0.2541544437
2508,0.2443792819
2509,0.2443792819
2510,0.2150537729
2511,0.1955034160
2512,0.1955034160
2513,0.1955034160
2514,0.1661779165
2515,0.1466275596
2516,0.1466275596
2517,0.1270772218
2518,0.1270772218
2519,0.1270772218
2520,0.1173020482
2521,0.1270772218
2522,0.1173020482
2523,0.1173020482
2524,0.1173020482
2525,0.1075268864
2526,0.1173020482
2527,0.1173020482
2528,0.1173020482
2529,0.1270772218
2530,0.1173020482
2531,0.1270772218
2532,0.1270772218
2533,0.1270772218
2534,0.1270772218
2535,0.1368523955
2536,0.1270772218
2537,0.1173020482
2538,0.1173020482
2539,0.1075268864
2540,0.1075268864
2541,0.1075268864
2542,0.0879765415
2543,0.0782013654
2544,0.0782013654
2545,0.0782013654
2546,0.0684261989
2547,0.0684261989
2548,0.0684261989
2549,0.0586510229
2550,0.0586510229
2551,0.0488758516
2552,0.0488758516
2553,0.0684261989
2554,0.0684261989
2555,0.0684261989
2556,0.0782013654
2557,0.0684261989
2558,0.0684261989
2559,0.0684261989
2560,0.0684261989
2561,0.0586510229
2562,0.0586510229
2563,0.0488758516
2564,0.0488758516
2565,0.0488758516
2566,0.0488758516
2567,0.0391006832
2568,0.0391006832
2569,0.0293255119
2570,0.0293255119
2571,0.0293255119
2572,0.0293255119
2573,0.0195503416
2574,0.0195503416
2575,0.0195503416
2576,0.0293255119
2577,0.0391006832
2578,0.0293255119
2579,0.0293255119
2580,0.0293255119
2581,0.0293255119
2582,0.0293255119
2583,0.0293255119
2584,0.0293255119
2585,0.0391006832
2586,0.0391006832
2587,0.0391006832
2588,0.0391006832
2589,0.0391006832
2590,0.0391006832
2591,0.0586510229
2592,0.0782013654
2593,0.0879765415
2594,0.1075268864
2595,0.1075268864
2596,0.1173020482
2597,0.1173020482
2598,0.1466275596
2599,0.1466275596
2600,0.1368523955
2601,0.1466275596
2602,0.1466275596
2603,0.1368523955
2604,0.1661779165
2605,0.1955034160
2606,0.2248289346
2607,0.2346040964
2608,0.2443792819
2609,0.2932551193
2610,0.2541544437
2611,0.3519061565
2612,0.3323558330
2613,0.3225806236
2614,0.3812316703
2615,0.4887585639
2616,0.5669599056
2617,0.5278592109
2618,0.5180840492
2619,0.5376344203
2620,0.4789833545
2621,0.4985337257
2622,0.5669599056
2623,0.6158357620
2624,0.5767350673
2625,0.5474095821
2626,0.5180840492
2627,0.5962854385
2628,0.5962854385
2629,0.5767350673
2630,0.6353860855
2631,0.5669599056
2632,0.5474095821
2633,0.5376344203
2634,0.5083088874
2635,0.4985337257
2636,0.5083088874
2637,0.5278592109
2638,0.5083088874
2639,0.4594330310
2640,0.4594330310
2641,0.4398827075
2642,0.3910068321
2643,0.3812316703
2644,0.3519061565
2645,0.3616813421
2646,0.3714565038
2647,0.3225806236
2648,0.3030303001
2649,0.2932551193
2650,0.2932551193
2651,0.2541544437
2652,0.2639296054
2653,0.2346040964
2654,0.2346040964
2655,0.2248289346
2656,0.2150537729
2657,0.1955034160
2658,0.1857282543
2659,0.1759530782
2660,0.1857282543
2661,0.1564027309
2662,0.1661779165
2663,0.1661779165
2664,0.1564027309
2665,0.1564027309
2666,0.1661779165
2667,0.1466275596
2668,0.1368523955
2669,0.1661779165
2670,0.1661779165
2671,0.1564027309
2672,0.1466275596
2673,0.1661779165
2674,0.1368523955
2675,0.1270772218
2676,0.1270772218
2677,0.1368523955
2678,0.1173020482
2679,0.1173020482
2680,0.1270772218
2681,0.1270772218
2682,0.1173020482
2683,0.1173020482
2684,0.1270772218
2685,0.1173020482
2686,0.1173020482
2687,0.1270772218
2688,0.1173020482
2689,0.0977517032
2690,0.0977517032
2691,0.0879765415
2692,0.0977517032
2693,0.0879765415
2694,0.0782013654
2695,0.0782013654
2696,0.0684261989
2697,0.0684261989
2698,0.0586510229
2699,0.0586510229
2700,0.0488758516
2701,0.0488758516
2702,0.0488758516
2703,0.0488758516
2704,0.0391006832
2705,0.0488758516
2706,0.0391006832
2707,0.0391006832
2708,0.0488758516
2709,0.0488758516
2710,0.0391006832
2711,0.0293255119
2712,0.0391006832
2713,0.0391006832
2714,0.0391006832
2715,0.0391006832
2716,0.0391006832
2717,0.0391006832
2718,0.0293255119
2719,0.0293255119
2720,0.0293255119
2721,0.0391006832
2722,0.0391006832
2723,0.0293255119
2724,0.0293255119
2725,0.0293255119
2726,0.0293255119
2727,0.0293255119
2728,0.0293255119
2729,0.0488758516
2730,0.0391006832
2731,0.0391006832
2732,0.0488758516
2733,0.0488758516
2734,0.0391006832
2735,0.0391006832
2736,0.0391006832
2737,0.0391006832
2738,0.0293255119
2739,0.0293255119
2740,0.0391006832
2741,0.0391006832
2742,0.0391006832
2743,0.0488758516
2744,0.0391006832
2745,0.0586510229
2746,0.0684261989
2747,0.0684261989
2748,0.0684261989
2749,0.0684261989
2750,0.0782013654
2751,0.0684261989
2752,0.0879765415
2753,0.0977517032
2754,0.1075268864
2755,0.1075268864
2756,0.1173020482
2757,0.1466275596
2758,0.1368523955
2759,0.1661779165
2760,0.1759530782
2761,0.1564027309
2762,0.1759530782
2763,0.1857282543
2764,0.2150537729
2765,0.2346040964
2766,0.2443792819
2767,0.3225806236
2768,0.3128054618
2769,0.3030303001
2770,0.3030303001
2771,0.3225806236
2772,0.3323558330
2773,0.3519061565
2774,0.3714565038
2775,0.3616813421
2776,0.3714565038
2777,0.4105571746
2778,0.4203323364
2779,0.4105571746
2780,0.4203323364
2781,0.4692081928
2782,0.4594330310
2783,0.4594330310
2784,0.4887585639
2785,0.4789833545
2786,0.4594330310
2787,0.4594330310
2788,0.4594330310
2789,0.4301075458
2790,0.3910068321
2791,0.3421309947
2792,0.3323558330
2793,0.3030303001
2794,0.2737047910
2795,0.2443792819
2796,0.2443792819
2797,0.2834799575
2798,0.2737047910
2799,0.2639296054
2800,0.2639296054
2801,0.2932551193
2802,0.2932551193
2803,0.2737047910
2804,0.2541544437
2805,0.2443792819
2806,0.2541544437
2807,0.2248289346
2808,0.2346040964
2809,0.2248289346
2810,0.2346040964
2811,0.2150537729
2812,0.2052785873
2813,0.2052785873
2814,0.2150537729
2815,0.2150537729
2816,0.2052785873
2817,0.2052785873
2818,0.2052785873
2819,0.1955034160
2820,0.1857282543
2821,0.2150537729
2822,0.2052785873
2823,0.2150537729
2824,0.1955034160
2825,0.1759530782
2826,0.1661779165
2827,0.1564027309
2828,0.1466275596
2829,0.1466275596
2830,0.1368523955
2831,0.1270772218
2832,0.1173020482
2833,0.1075268864
2834,0.1173020482
2835,0.1173020482
2836,0.0879765415
2837,0.0879765415
2838,0.0782013654
2839,0.0684261989
2840,0.0684261989
2841,0.0586510229
2842,0.0488758516
2843,0.0488758516
2844,0.0488758516
2845,0.0488758516
2846,0.0488758516
2847,0.0488758516
2848,0.0488758516
2849,0.0488758516
2850,0.0488758516
2851,0.0488758516
2852,0.0488758516
2853,0.0488758516
2854,0.0488758516
2855,0.0391006832
2856,0.0488758516
2857,0.0488758516
2858,0.0391006832
2859,0.0391006832
2860,0.0391006832
2861,0.0488758516
2862,0.0391006832
2863,0.0391006832
2864,0.0391006832
2865,0.0391006832
2866,0.0391006832
2867,0.0391006832
2868,0.0391006832
2869,0.0293255119
2870,0.0293255119
2871,0.0293255119
2872,0.0293255119
2873,0.0293255119
2874,0.0195503416
2875,0.0195503416
2876,0.0391006832
2877,0.0391006832
2878,0.0391006832
2879,0.0391006832
2880,0.0391006832
2881,0.0391006832
2882,0.0391006832
2883,0.0488758516
2884,0.0391006832
2885,0.0391006832
2886,0.0391006832
2887,0.0391006832
2888,0.0488758516
2889,0.0488758516
2890,0.0488758516
2891,0.0488758516
2892,0.0684261989
2893,0.0684261989
2894,0.0684261989
2895,0.0782013654
2896,0.0977517032
2897,0.0977517032
2898,0.1173020482
2899,0.1173020482
2900,0.1466275596
2901,0.1564027309
2902,0.1564027309
2903,0.2150537729
2904,0.2834799575
2905,0.3030303001
2906,0.3323558330
2907,0.3616813421
2908,0.3812316703
2909,0.3812316703
2910,0.4301075458
2911,0.3812316703
2912,0.4301075458
2913,0.4496578693
2914,0.4398827075
2915,0.4301075458
2916,0.4789833545
2917,0.5083088874
2918,0.4789833545
2919,0.4594330310
2920,0.4692081928
2921,0.4692081928
2922,0.5083088874
2923,0.5669599056
2924,0.5767350673
2925,0.5474095821
2926,0.5767350673
2927,0.5669599056
2928,0.5767350673
2929,0.5767350673
2930,0.5180840492
2931,0.4594330310
2932,0.4496578693
2933,0.4692081928
2934,0.4203323364
2935,0.4789833545
2936,0.4301075458
2937,0.4203323364
2938,0.4203323364
2939,0.3616813421
2940,0.3519061565
2941,0.3812316703
2942,0.3714565038
2943,0.3714565038
2944,0.3519061565
2945,0.3323558330
2946,0.3421309947
2947,0.3128054618
2948,0.3030303001
2949,0.2932551193
2950,0.2834799575
2951,0.2932551193
2952,0.2639296054
2953,0.2541544437
2954,0.2150537729
2955,0.2150537729
2956,0.2150537729
2957,0.2150537729
2958,0.2346040964
2959,0.2150537729
2960,0.1857282543
2961,0.2150537729
2962,0.1857282543
2963,0.1857282543
2964,0.1857282543
2965,0.1955034160
2966,0.1759530782
2967,0.1759530782
2968,0.1661779165
2969,0.1466275596
2970,0.1564027309
2971,0.1564027309
2972,0.1368523955
2973,0.1368523955
2974,0.1270772218
2975,0.1075268864
2976,0.0977517032
2977,0.0879765415
2978,0.0879765415
2979,0.0782013654
2980,0.0782013654
2981,0.0684261989
2982,0.0586510229
2983,0.0684261989
2984,0.0586510229
2985,0.0586510229
2986,0.0586510229
2987,0.0488758516
2988,0.0488758516
2989,0.0488758516
2990,0.0488758516
2991,0.0488758516
2992,0.0488758516
2993,0.0488758516
2994,0.0488758516
2995,0.0391006832
2996,0.0391006832
2997,0.0391006832
2998,0.0391006832
2999,0.0391006832
3000,0.0391006832
3001,0.3519061565
3002,0.2834799575
3003,0.2443792819
3004,0.2052785873
3005,0.1661779165
3006,0.1661779165
3007,0.1564027309
3008,0.1466275596
3009,0.1173020482
3010,0.1075268864
3011,0.0977517032
3012,0.0782013654
3013,0.0782013654
3014,0.0782013654
3015,0.0684261989
3016,0.0586510229
3017,0.0684261989
3018,0.0684261989
3019,0.0782013654
3020,0.0684261989
3021,0.0586510229
3022,0.0586510229
3023,0.0684261989
3024,0.0684261989
3025,0.0684261989
3026,0.0684261989
3027,0.0684261989
3028,0.0879765415
3029,0.0879765415
3030,0.0977517032
3031,0.1075268864
3032,0.1466275596
3033,0.1466275596
3034,0.1466275596
3035,0.1368523955
3036,0.1564027309
3037,0.1466275596
3038,0.1759530782
3039,0.1759530782
3040,0.1955034160
3041,0.1955034160
3042,0.2150537729
3043,0.2443792819
3044,0.2443792819
3045,0.2248289346
3046,0.2248289346
3047,0.2248289346
3048,0.2834799575
3049,0.2834799575
3050,0.2541544437
3051,0.2541544437
3052,0.2737047910
3053,0.2932551193
3054,0.2834799575
3055,0.2834799575
3056,0.2834799575
3057,0.3421309947
3058,0.3128054618
3059,0.3323558330
3060,0.3128054618
3061,0.2834799575
3062,0.2737047910
3063,0.3128054618
3064,0.3030303001
3065,0.2932551193
3066,0.3128054618
3067,0.4007820129
3068,0.4007820129
3069,0.4203323364
3070,0.3714565038
3071,0.3323558330
3072,0.3128054618
3073,0.3030303001
3074,0.2834799575
3075,0.3030303001
3076,0.2737047910
3077,0.2834799575
3078,0.3225806236
3079,0.3128054618
3080,0.2737047910
3081,0.2639296054
3082,0.2541544437
3083,0.2639296054
3084,0.2737047910
3085,0.2737047910
3086,0.2639296054
3087,0.2248289346
3088,0.2150537729
3089,0.1857282543
3090,0.1857282543
3091,0.1857282543
3092,0.1759530782
3093,0.1661779165
3094,0.2052785873
3095,0.2150537729
3096,0.2052785873
3097,0.1955034160
3098,0.1857282543
3099,0.1661779165
3100,0.1661779165
3101,0.1759530782
3102,0.1564027309
3103,0.1466275596
3104,0.1759530782
3105,0.1661779165
3106,0.1857282543
3107,0.1661779165
3108,0.1466275596
3109,0.1368523955
3110,0.1466275596
3111,0.1368523955
3112,0.1173020482
3113,0.1173020482
3114,0.1075268864
3115,0.1173020482
3116,0.1075268864
3117,0.1075268864
3118,0.0977517032
3119,0.1075268864
3120,0.1173020482
3121,0.0977517032
3122,0.0879765415
3123,0.1075268864
3124,0.1173020482
3125,0.1075268864
3126,0.1075268864
3127,0.0977517032
3128,0.0879765415
3129,0.0782013654
3130,0.0782013654
3131,0.0879765415
3132,0.0879765415
3133,0.0782013654
3134,0.0782013654
3135,0.0684261989
3136,0.0684261989
3137,0.0684261989
3138,0.0586510229
3139,0.0586510229
3140,0.0586510229
3141,0.0586510229
3142,0.0586510229
3143,0.0586510229
3144,0.0684261989
3145,0.0684261989
3146,0.0684261989
3147,0.0586510229
3148,0.0586510229
3149,0.0488758516
3150,0.0488758516
3151,0.0488758516
3152,0.0586510229
3153,0.0488758516
3154,0.0488758516
3155,0.0586510229
3156,0.0586510229
3157,0.0488758516
3158,0.0586510229
3159,0.0586510229
3160,0.0684261989
3161,0.0684261989
3162,0.0782013654
3163,0.0782013654
3164,0.0684261989
3165,0.0879765415
3166,0.0879765415
3167,0.0879765415
3168,0.0879765415
3169,0.1173020482
3170,0.1759530782
3171,0.1075268864
3172,0.0977517032
3173,0.1173020482
3174,0.1173020482
3175,0.1466275596
3176,0.1466275596
3177,0.1564027309
3178,0.1564027309
3179,0.1759530782
3180,0.1857282543
3181,0.1955034160
3182,0.1955034160
3183,0.1857282543
3184,0.1564027309
3185,0.1466275596
3186,0.1661779165
3187,0.1661779165
3188,0.2052785873
3189,0.1857282543
3190,0.1857282543
3191,0.2052785873
3192,0.2248289346
3193,0.2639296054
3194,0.2541544437
3195,0.2443792819
3196,0.2346040964
3197,0.2248289346
3198,0.2346040964
3199,0.2541544437
3200,0.2639296054
3201,0.3225806236
3202,0.3030303001
3203,0.2834799575
3204,0.2639296054
3205,0.2541544437
3206,0.2834799575
3207,0.2737047910
3208,0.2346040964
3209,0.2639296054
3210,0.3225806236
3211,0.2932551193
3212,0.2639296054
3213,0.2346040964
3214,0.2150537729
3215,0.2248289346
3216,0.2150537729
3217,0.1955034160
3218,0.1857282543
3219,0.1857282543
3220,0.1661779165
3221,0.1466275596
3222,0.1759530782
3223,0.1564027309
3224,0.1368523955
3225,0.1466275596
3226,0.1857282543
3227,0.1759530782
3228,0.1661779165
3229,0.1661779165
3230,0.1466275596
3231,0.1466275596
3232,0.1368523955
3233,0.1270772218
3234,0.1173020482
3235,0.1173020482
3236,0.1173020482
3237,0.1173020482
3238,0.1173020482
3239,0.1270772218
3240,0.1466275596
3241,0.1270772218
3242,0.1270772218
3243,0.1368523955
3244,0.1173020482
3245,0.1368523955
3246,0.1173020482
3247,0.1075268864
3248,0.1075268864
3249,0.1075268864
3250,0.0977517032
3251,0.0977517032
3252,0.1075268864
3253,0.1075268864
3254,0.0977517032
3255,0.0879765415
3256,0.0977517032
3257,0.0879765415
3258,0.0879765415
3259,0.0879765415
3260,0.0879765415
3261,0.0782013654
3262,0.0684261989
3263,0.0684261989
3264,0.0782013654
3265,0.0977517032
3266,0.0782013654
3267,0.0782013654
3268,0.0879765415
3269,0.0977517032
3270,0.0879765415
3271,0.0782013654
3272,0.0879765415
3273,0.0977517032
3274,0.0782013654
3275,0.0586510229
3276,0.0684261989
3277,0.0782013654
3278,0.0684261989
3279,0.0586510229
3280,0.0586510229
3281,0.0684261989
3282,0.0586510229
3283,0.0586510229
3284,0.0684261989
3285,0.0586510229
3286,0.0488758516
3287,0.0586510229
3288,0.0488758516
3289,0.0586510229
3290,0.0586510229
3291,0.0488758516
3292,0.0488758516
3293,0.0586510229
3294,0.0586510229
3295,0.0684261989
3296,0.0684261989
3297,0.0684261989
3298,0.0782013654
3299,0.0684261989
3300,0.0782013654
3301,0.0782013654
3302,0.0879765415
3303,0.0879765415
3304,0.0977517032
3305,0.1075268864
3306,0.1270772218
3307,0.1270772218
3308,0.1368523955
3309,0.1368523955
3310,0.1466275596
3311,0.1466275596
3312,0.1564027309
3313,0.1564027309
3314,0.1759530782
3315,0.2052785873
3316,0.1955034160
3317,0.2150537729
3318,0.2150537729
3319,0.2346040964
3320,0.2737047910
3321,0.2932551193
3322,0.2834799575
3323,0.3714565038
3324,0.4203323364
3325,0.3812316703
3326,0.3910068321
3327,0.4007820129
3328,0.4203323364
3329,0.5083088874
3330,0.4496578693
3331,0.5474095821
3332,0.6256109237
3333,0.6353860855
3334,0.6842619895
3335,0.9481915473
3336,0.8308895111
3337,0.8602150917
3338,0.9579667091
3339,1.0166177749
3340,0.9481915473
3341,0.8602150917
3342,0.8895405769
3343,0.8308895111
3344,0.7917888641
3345,0.7233626842
3346,0.8113391876
3347,0.7722384929
3348,0.6842619895
3349,0.7526881694
3350,0.8504399299
3351,0.8406646728
3352,0.7526881694
3353,0.6940371513
3354,0.5962854385
3355,0.5180840492
3356,0.4594330310
3357,0.4007820129
3358,0.3714565038
3359,0.3225806236
3360,0.2834799575
3361,0.3421309947
3362,0.3030303001
3363,0.2639296054
3364,0.2932551193
3365,0.2834799575
3366,0.2443792819
3367,0.2443792819
3368,0.2150537729
3369,0.2052785873
3370,0.2052785873
3371,0.1759530782
3372,0.1661779165
3373,0.1564027309
3374,0.1661779165
3375,0.1955034160
3376,0.2052785873
3377,0.1955034160
3378,0.1955034160
3379,0.1857282543
3380,0.1857282543
3381,0.1759530782
3382,0.1857282543
3383,0.1661779165
3384,0.1466275596
3385,0.1466275596
3386,0.1368523955
3387,0.1368523955
3388,0.1270772218
3389,0.1270772218
3390,0.1270772218
3391,0.1368523955
3392,0.1368523955
3393,0.1173020482
3394,0.1173020482
3395,0.1173020482
3396,0.1075268864
3397,0.0977517032
3398,0.0977517032
3399,0.0977517032
3400,0.0879765415
3401,0.0782013654
3402,0.0782013654
3403,0.0684261989
3404,0.0684261989
3405,0.0586510229
3406,0.0684261989
3407,0.0586510229
3408,0.0586510229
3409,0.0586510229
3410,0.0684261989
3411,0.0586510229
3412,0.0586510229
3413,0.0488758516
3414,0.0684261989
3415,0.0782013654
3416,0.0684261989
3417,0.0586510229
3418,0.0684261989
3419,0.0684261989
3420,0.0782013654
3421,0.0684261989
3422,0.0684261989
3423,0.0879765415
3424,0.0684261989
3425,0.0879765415
3426,0.0879765415
3427,0.0782013654
3428,0.0684261989
3429,0.0684261989
3430,0.0684261989
3431,0.0684261989
3432,0.0782013654
3433,0.0782013654
3434,0.0782013654
3435,0.0879765415
3436,0.0879765415
3437,0.0879765415
3438,0.0879765415
3439,0.0977517032
3440,0.1075268864
3441,0.1173020482
3442,0.0977517032
3443,0.1075268864
3444,0.1368523955
3445,0.1368523955
3446,0.1661779165
3447,0.1661779165
3448,0.1759530782
3449,0.1857282543
3450,0.2248289346
3451,0.2150537729
3452,0.2248289346
3453,0.2248289346
3454,0.2052785873
3455,0.2052785873
3456,0.2150537729
3457,0.2248289346
3458,0.2639296054
3459,0.2639296054
3460,0.3225806236
3461,0.3616813421
3462,0.3714565038
3463,0.4007820129
3464,0.4496578693
3465,0.4301075458
3466,0.5083088874
3467,0.4985337257
3468,0.4789833545
3469,0.5083088874
3470,0.4985337257
3471,0.4301075458
3472,0.4496578693
3473,0.4007820129
3474,0.4398827075
3475,0.3812316703
3476,0.3421309947
3477,0.3225806236
3478,0.3030303001
3479,0.3225806236
3480,0.3421309947
3481,0.3128054618
3482,0.3030303001
3483,0.2932551193
3484,0.2737047910
3485,0.2541544437
3486,0.2443792819
3487,0.2541544437
3488,0.2443792819
3489,0.2443792819
3490,0.2541544437
3491,0.2737047910
3492,0.2248289346
3493,0.2639296054
3494,0.2834799575
3495,0.2737047910
3496,0.2737047910
3497,0.2346040964
3498,0.2248289346
3499,0.2150537729
3500,0.1955034160
3501,0.1857282543
3502,0.2443792819
3503,0.2052785873
3504,0.1857282543
3505,0.2052785873
3506,0.1857282543
3507,0.1857282543
3508,0.1661779165
3509,0.1564027309
3510,0.1955034160
3511,0.2248289346
3512,0.2150537729
3513,0.2052785873
3514,0.1759530782
3515,0.1759530782
3516,0.1857282543
3517,0.1564027309
3518,0.1466275596
3519,0.1368523955
3520,0.1173020482
3521,0.1075268864
3522,0.1075268864
3523,0.0977517032
3524,0.0977517032
3525,0.0977517032
3526,0.1075268864
3527,0.1270772218
3528,0.1173020482
3529,0.1075268864
3530,0.1075268864
3531,0.1075268864
3532,0.0977517032
3533,0.0977517032
3534,0.0879765415
3535,0.0782013654
3536,0.1075268864
3537,0.0977517032
3538,0.0879765415
3539,0.0782013654
3540,0.0879765415
3541,0.0977517032
3542,0.0879765415
3543,0.0684261989
3544,0.0782013654
3545,0.0782013654
3546,0.0684261989
3547,0.0684261989
3548,0.0684261989
3549,0.0684261989
3550,0.0586510229
3551,0.0586510229
3552,0.0586510229
3553,0.0488758516
3554,0.0782013654
3555,0.0782013654
3556,0.0879765415
3557,0.0782013654
3558,0.0879765415
3559,0.0782013654
3560,0.0879765415
3561,0.0977517032
3562,0.0977517032
3563,0.0782013654
3564,0.0879765415
3565,0.0879765415
3566,0.0782013654
3567,0.0879765415
3568,0.0977517032
3569,0.0977517032
3570,0.0977517032
3571,0.0977517032
3572,0.0977517032
3573,0.1075268864
3574,0.1075268864
3575,0.1368523955
3576,0.1564027309
3577,0.1466275596
3578,0.1466275596
3579,0.1466275596
3580,0.1564027309
3581,0.1564027309
3582,0.1564027309
3583,0.1466275596
3584,0.1368523955
3585,0.1759530782
3586,0.1759530782
3587,0.2248289346
3588,0.2150537729
3589,0.2541544437
3590,0.2932551193
3591,0.2737047910
3592,0.2834799575
3593,0.3323558330
3594,0.3030303001
3595,0.2541544437
3596,0.2443792819
3597,0.3128054618
3598,0.2932551193
3599,0.3323558330
3600,0.3616813421
3601,0.3812316703
3602,0.5180840492
3603,0.5571847438
3604,0.6940371513
3605,0.7233626842
3606,0.8015640258
3607,0.8797654151
3608,0.6842619895
3609,0.7429130077
3610,0.6842619895
3611,0.6940371513
3612,0.7038123130
3613,0.7722384929
3614,0.7429130077
3615,0.7233626842
3616,0.6451612472
3617,0.6353860855
3618,0.6158357620
3619,0.5278592109
3620,0.5376344203
3621,0.5180840492
3622,0.6060606002
3623,0.5962854385
3624,0.5669599056
3625,0.5083088874
3626,0.4496578693
3627,0.4398827075
3628,0.4105571746
3629,0.3714565038
3630,0.3225806236
3631,0.2932551193
3632,0.2541544437
3633,0.2346040964
3634,0.2346040964
3635,0.2150537729
3636,0.2443792819
3637,0.2834799575
3638,0.2932551193
3639,0.2737047910
3640,0.2932551193
3641,0.2541544437
3642,0.2541544437
3643,0.2248289346
3644,0.2346040964
3645,0.2443792819
3646,0.2737047910
3647,0.2346040964
3648,0.2052785873
3649,0.2052785873
3650,0.2248289346
3651,0.1857282543
3652,0.1857282543
3653,0.1857282543
3654,0.1564027309
3655,0.1368523955
3656,0.1466275596
3657,0.1857282543
3658,0.1661779165
3659,0.1466275596
3660,0.1564027309
3661,0.1466275596
3662,0.1564027309
3663,0.1466275596
3664,0.1564027309
3665,0.1759530782
3666,0.1466275596
3667,0.1270772218
3668,0.1173020482
3669,0.1270772218
3670,0.1173020482
3671,0.1075268864
3672,0.1075268864
3673,0.1075268864
3674,0.0879765415
3675,0.0782013654
3676,0.0782013654
3677,0.0782013654
3678,0.0684261989
3679,0.0684261989
3680,0.0782013654
3681,0.0782013654
3682,0.0684261989
3683,0.0782013654
3684,0.0782013654
3685,0.0684261989
3686,0.0782013654
3687,0.0782013654
3688,0.0684261989
3689,0.0684261989
3690,0.0782013654
3691,0.0782013654
3692,0.0782013654
3693,0.0879765415
3694,0.1173020482
3695,0.1075268864
3696,0.1075268864
3697,0.1173020482
3698,0.1173020482
3699,0.0977517032
3700,0.1466275596
3701,0.1368523955
3702,0.1466275596
3703,0.1466275596
3704,0.1368523955
3705,0.1368523955
3706,0.1270772218
3707,0.1564027309
3708,0.1661779165
3709,0.1661779165
3710,0.1368523955
3711,0.1466275596
3712,0.1661779165
3713,0.1759530782
3714,0.2052785873
3715,0.1759530782
3716,0.2052785873
3717,0.1857282543
3718,0.2346040964
3719,0.2443792819
3720,0.2737047910
3721,0.2932551193
3722,0.2639296054
3723,0.2639296054
3724,0.2443792819
3725,0.2834799575
3726,0.2737047910
3727,0.3128054618
3728,0.2932551193
3729,0.2932551193
3730,0.3519061565
3731,0.3714565038
3732,0.4496578693
3733,0.4398827075
3734,0.4007820129
3735,0.4985337257
3736,0.5474095821
3737,0.5474095821
3738,0.6256109237
3739,0.6842619895
3740,0.6060606002
3741,0.6158357620
3742,0.6842619895
3743,0.8113391876
3744,0.7526881694
3745,0.7624633312
3746,0.7722384929
3747,0.7624633312
3748,0.7429130077
3749,0.7233626842
3750,0.6744868278
3751,0.6842619895
3752,0.6353860855
3753,0.5669599056
3754,0.5474095821
3755,0.4887585639
3756,0.4301075458
3757,0.4105571746
3758,0.4496578693
3759,0.4007820129
3760,0.3714565038
3761,0.3519061565
3762,0.3128054618
3763,0.3128054618
3764,0.2932551193
3765,0.2541544437
3766,0.2541544437
3767,0.2346040964
3768,0.2150537729
3769,0.2052785873
3770,0.1955034160
3771,0.2052785873
3772,0.2737047910
3773,0.2346040964
3774,0.2150537729
3775,0.2150537729
3776,0.2443792819
3777,0.2052785873
3778,0.1857282543
3779,0.1955034160
3780,0.1857282543
3781,0.1564027309
3782,0.1564027309
3783,0.1368523955
3784,0.1564027309
3785,0.1564027309
3786,0.1661779165
3787,0.1661779165
3788,0.1661779165
3789,0.1466275596
3790,0.1466275596
3791,0.1368523955
3792,0.1368523955
3793,0.1368523955
3794,0.1270772218
3795,0.1368523955
3796,0.1466275596
3797,0.1564027309
3798,0.1368523955
3799,0.1173020482
3800,0.1270772218
3801,0.1173020482
3802,0.1075268864
3803,0.1075268864
3804,0.1075268864
3805,0.0977517032
3806,0.1075268864
3807,0.1368523955
3808,0.1075268864
3809,0.0879765415
3810,0.0879765415
3811,0.0977517032
3812,0.1075268864
3813,0.1173020482
3814,0.0977517032
3815,0.0879765415
3816,0.1075268864
3817,0.0977517032
3818,0.0879765415
3819,0.0879765415
3820,0.0782013654
3821,0.0879765415
3822,0.0782013654
3823,0.0684261989
3824,0.0684261989
3825,0.0586510229
3826,0.0586510229
3827,0.0488758516
3828,0.0586510229
3829,0.0684261989
3830,0.0684261989
3831,0.0684261989
3832,0.0586510229
3833,0.0684261989
3834,0.0586510229
3835,0.0488758516
3836,0.0586510229
3837,0.0586510229
3838,0.0586510229
3839,0.0488758516
3840,0.0586510229
3841,0.0586510229
3842,0.0586510229
3843,0.0586510229
3844,0.0684261989
3845,0.0879765415
3846,0.0879765415
3847,0.0977517032
3848,0.1075268864
3849,0.1173020482
3850,0.1075268864
3851,0.1173020482
3852,0.1466275596
3853,0.1564027309
3854,0.1466275596
3855,0.1466275596
3856,0.1466275596
3857,0.1759530782
3858,0.1759530782
3859,0.1857282543
3860,0.2541544437
3861,0.2541544437
3862,0.2834799575
3863,0.2639296054
3864,0.2346040964
3865,0.2443792819
3866,0.2346040964
3867,0.2248289346
3868,0.2443792819
3869,0.2639296054
3870,0.2932551193
3871,0.3030303001
3872,0.3421309947
3873,0.3225806236
3874,0.3519061565
3875,0.3225806236
3876,0.3225806236
3877,0.3616813421
3878,0.3616813421
3879,0.3421309947
3880,0.3519061565
3881,0.3616813421
3882,0.4301075458
3883,0.4496578693
3884,0.5180840492
3885,0.4692081928
3886,0.4301075458
3887,0.4105571746
3888,0.3910068321
3889,0.3812316703
3890,0.3519061565
3891,0.3030303001
3892,0.3030303001
3893,0.3128054618
3894,0.3323558330
3895,0.3030303001
3896,0.3519061565
3897,0.3225806236
3898,0.3030303001
3899,0.3128054618
3900,0.3812316703
3901,0.3128054618
3902,0.2737047910
3903,0.2639296054
3904,0.2346040964
3905,0.2052785873
3906,0.1857282543
3907,0.1759530782
3908,0.1661779165
3909,0.1661779165
3910,0.1661779165
3911,0.1759530782
3912,0.1564027309
3913,0.1466275596
3914,0.2052785873
3915,0.1759530782
3916,0.1661779165
3917,0.1759530782
3918,0.1661779165
3919,0.1857282543
3920,0.1564027309
3921,0.1466275596
3922,0.1564027309
3923,0.1466275596
3924,0.1466275596
3925,0.1661779165
3926,0.1661779165
3927,0.1466275596
3928,0.1368523955
3929,0.1368523955
3930,0.1173020482
3931,0.1270772218
3932,0.1270772218
3933,0.1270772218
3934,0.1270772218
3935,0.1270772218
3936,0.1173020482
3937,0.0977517032
3938,0.1075268864
3939,0.0977517032
3940,0.1075268864
3941,0.1075268864
3942,0.0977517032
3943,0.1075268864
3944,0.0977517032
3945,0.0977517032
3946,0.1075268864
3947,0.0879765415
3948,0.0879765415
3949,0.0879765415
3950,0.0879765415
3951,0.0977517032
3952,0.0977517032
3953,0.0879765415
3954,0.0879765415
3955,0.0782013654
3956,0.0684261989
3957,0.0684261989
3958,0.0684261989
3959,0.0684261989
3960,0.0586510229
3961,0.0488758516
3962,0.0586510229
3963,0.0586510229
3964,0.0488758516
3965,0.0488758516
3966,0.0488758516
3967,0.0391006832
3968,0.0391006832
3969,0.0488758516
3970,0.0586510229
3971,0.0488758516
3972,0.0488758516
3973,0.0586510229
3974,0.0586510229
3975,0.0488758516
3976,0.0488758516
3977,0.0488758516
3978,0.0586510229
3979,0.0488758516
3980,0.0488758516
3981,0.0488758516
3982,0.0488758516
3983,0.0488758516
3984,0.0488758516
3985,0.0586510229
3986,0.0488758516
3987,0.0488758516
3988,0.0586510229
3989,0.0684261989
3990,0.0586510229
3991,0.0684261989
3992,0.0684261989
3993,0.0586510229
3994,0.0782013654
3995,0.0782013654
3996,0.0879765415
3997,0.0977517032
3998,0.0879765415
3999,0.1075268864
0,0.1173020482
1,0.6451612472
2,0.5376344203
3,0.4496578693
4,0.3910068321
5,0.3225806236
6,0.2737047910
7,0.2346040964
8,0.2248289346
9,0.2052785873
10,0.1759530782
11,0.1466275596
12,0.1466275596
13,0.1466275596
14,0.1466275596
15,0.1368523955
16,0.1564027309
17,0.1466275596
18,0.1270772218
19,0.1173020482
20,0.1173020482
21,0.1075268864
22,0.1173020482
23,0.1368523955
24,0.1368523955
25,0.1368523955
26,0.1368523955
27,0.1270772218
28,0.1270772218
29,0.1368523955
30,0.1368523955
31,0.1270772218
32,0.1368523955
33,0.1270772218
34,0.1368523955
35,0.1466275596
36,0.1466275596
37,0.1564027309
38,0.1466275596
39,0.1759530782
40,0.1661779165
41,0.1661779165
42,0.1564027309
43,0.1466275596
44,0.1857282543
45,0.1759530782
46,0.1564027309
47,0.1564027309
48,0.1759530782
49,0.1857282543
50,0.1564027309
51,0.1368523955
52,0.1368523955
53,0.1270772218
54,0.1270772218
55,0.1075268864
56,0.1075268864
57,0.1075268864
58,0.0977517032
59,0.0977517032
60,0.0977517032
61,0.0977517032
62,0.0879765415
63,0.0879765415
64,0.0782013654
65,0.0879765415
66,0.0782013654
67,0.0684261989
68,0.0782013654
69,0.1075268864
70,0.0879765415
71,0.0782013654
72,0.0879765415
73,0.0782013654
74,0.0782013654
75,0.0782013654
76,0.0782013654
77,0.0782013654
78,0.0782013654
79,0.0684261989
80,0.0586510229
81,0.0684261989
82,0.0586510229
83,0.0586510229
84,0.0488758516
85,0.0488758516
86,0.0488758516
87,0.0488758516
88,0.0488758516
89,0.0391006832
90,0.0293255119
91,0.0293255119
92,0.0391006832
93,0.0391006832
94,0.0391006832
95,0.0293255119
96,0.0195503416
97,0.0195503416
98,0.0195503416
99,0.0195503416
100,0.0097751703
101,0.0097751703
102,0.0097751703
103,0.0097751703
104,0.0000000000
105,0.0097751703
106,0.0195503416
107,0.0097751703
108,0.0097751703
109,0.0097751703
110,0.0097751703
111,0.0000000000
112,0.0000000000
113,0.0000000000
114,0.0097751703
115,0.0097751703
116,0.0195503416
117,0.0391006832
118,0.0293255119
119,0.0195503416
120,0.0195503416
121,0.0195503416
122,0.0097751703
123,0.0097751703
124,0.0097751703
125,0.0097751703
126,0.0000000000
127,0.0000000000
128,0.0000000000
129,0.0000000000
130,0.0097751703
131,0.0097751703
132,0.0000000000
133,0.0000000000
134,0.0000000000
135,0.0000000000
136,0.0097751703
137,0.0097751703
138,0.0195503416
139,0.0195503416
140,0.0293255119
141,0.0293255119
142,0.0293255119
143,0.0391006832
144,0.0391006832
145,0.0488758516
146,0.0586510229
147,0.0586510229
148,0.0586510229
149,0.0488758516
150,0.0586510229
151,0.0488758516
152,0.0488758516
153,0.0488758516
154,0.0586510229
155,0.0586510229
156,0.0586510229
157,0.0782013654
158,0.0879765415
159,0.0977517032
160,0.1075268864
161,0.1173020482
162,0.1368523955
163,0.1466275596
164,0.1368523955
165,0.1466275596
166,0.1368523955
167,0.1368523955
168,0.1270772218
169,0.1270772218
170,0.1661779165
171,0.1759530782
172,0.1759530782
173,0.1759530782
174,0.1661779165
175,0.1661779165
176,0.1759530782
177,0.1759530782
178,0.2052785873
179,0.2248289346
180,0.1955034160
181,0.1955034160
182,0.1955034160
183,0.1955034160
184,0.2248289346
185,0.2052785873
186,0.1857282543
187,0.1955034160
188,0.1759530782
189,0.1466275596
190,0.1368523955
191,0.1270772218
192,0.1173020482
193,0.1075268864
194,0.1075268864
195,0.0977517032
196,0.0977517032
197,0.0977517032
198,0.0879765415
199,0.0879765415
200,0.0879765415
201,0.0879765415
202,0.0782013654
203,0.0684261989
204,0.0684261989
205,0.0782013654
206,0.0782013654
207,0.0684261989
208,0.0684261989
209,0.0782013654
210,0.0684261989
211,0.0684261989
212,0.0586510229
213,0.0684261989
214,0.0684261989
215,0.0586510229
216,0.0488758516
217,0.0488758516
218,0.0391006832
219,0.0391006832
220,0.0391006832
221,0.0391006832
222,0.0391006832
223,0.0391006832
224,0.0293255119
225,0.0293255119
226,0.0293255119
227,0.0293255119
228,0.0195503416
229,0.0195503416
230,0.0195503416
231,0.0195503416
232,0.0195503416
233,0.0195503416
234,0.0195503416
235,0.0097751703
236,0.0097751703
237,0.0195503416
238,0.0195503416
239,0.0097751703
240,0.0097751703
241,0.0097751703
242,0.0097751703
243,0.0000000000
244,0.0000000000
245,0.0097751703
246,0.0097751703
247,0.0097751703
248,0.0097751703
249,0.0293255119
250,0.0391006832
251,0.0488758516
252,0.0391006832
253,0.0391006832
254,0.0293255119
255,0.0195503416
256,0.0195503416
257,0.0097751703
258,0.0097751703
259,0.0097751703
260,0.0097751703
261,0.0097751703
262,0.0097751703
263,0.0097751703
264,0.0097751703
265,0.0097751703
266,0.0000000000
267,0.0000000000
268,0.0000000000
269,0.0000000000
270,0.0097751703
271,0.0195503416
272,0.0195503416
273,0.0195503416
274,0.0195503416
275,0.0293255119
276,0.0293255119
277,0.0488758516
278,0.0586510229
279,0.0684261989
280,0.0684261989
281,0.0782013654
282,0.1075268864
283,0.1173020482
284,0.1075268864
285,0.0977517032
286,0.0977517032
287,0.1075268864
288,0.1075268864
289,0.1173020482
290,0.1270772218
291,0.1270772218
292,0.1173020482
293,0.1270772218
294,0.1270772218
295,0.1368523955
296,0.1270772218
297,0.1466275596
298,0.1466275596
299,0.1466275596
300,0.1564027309
301,0.1661779165
302,0.1857282543
303,0.1759530782
304,0.1857282543
305,0.1759530782
306,0.1857282543
307,0.1759530782
308,0.1661779165
309,0.1661779165
310,0.1661779165
311,0.1759530782
312,0.1564027309
313,0.1466275596
314,0.1564027309
315,0.1564027309
316,0.1466275596
317,0.1368523955
318,0.1270772218
319,0.1368523955
320,0.1564027309
321,0.1564027309
322,0.1368523955
323,0.1466275596
324,0.1466275596
325,0.1466275596
326,0.1466275596
327,0.1270772218
328,0.1173020482
329,0.1173020482
330,0.1173020482
331,0.1075268864
332,0.0977517032
333,0.0977517032
334,0.0879765415
335,0.0879765415
336,0.0879765415
337,0.0879765415
338,0.0782013654
339,0.0782013654
340,0.0782013654
341,0.0684261989
342,0.0684261989
343,0.0782013654
344,0.0684261989
345,0.0586510229
346,0.0684261989
347,0.0684261989
348,0.0586510229
349,0.0684261989
350,0.0684261989
351,0.0586510229
352,0.0684261989
353,0.0586510229
354,0.0488758516
355,0.0586510229
356,0.0586510229
357,0.0586510229
358,0.0586510229
359,0.0684261989
360,0.0684261989
361,0.0782013654
362,0.0684261989
363,0.0586510229
364,0.0586510229
365,0.0782013654
366,0.0684261989
367,0.0586510229
368,0.0488758516
369,0.0488758516
370,0.0488758516
371,0.0586510229
372,0.0586510229
373,0.0488758516
374,0.0391006832
375,0.0391006832
376,0.0293255119
377,0.0391006832
378,0.0391006832
379,0.0391006832
380,0.0293255119
381,0.0293255119
382,0.0293255119
383,0.0293255119
384,0.0195503416
385,0.0195503416
386,0.0195503416
387,0.0195503416
388,0.0195503416
389,0.0195503416
390,0.0195503416
391,0.0195503416
392,0.0097751703
393,0.0195503416
394,0.0195503416
395,0.0097751703
396,0.0097751703
397,0.0097751703
398,0.0097751703
399,0.0097751703
400,0.0097751703
401,0.0097751703
402,0.0097751703
403,0.0097751703
404,0.0097751703
405,0.0097751703
406,0.0195503416
407,0.0097751703
408,0.0195503416
409,0.0195503416
410,0.0293255119
411,0.0195503416
412,0.0195503416
413,0.0097751703
414,0.0097751703
415,0.0097751703
416,0.0000000000
417,0.0000000000
418,0.0000000000
419,0.0000000000
420,0.0000000000
421,0.0000000000
422,0.0000000000
423,0.0000000000
424,0.0097751703
425,0.0097751703
426,0.0097751703
427,0.0097751703
428,0.0195503416
429,0.0293255119
430,0.0293255119
431,0.0391006832
432,0.0391006832
433,0.0488758516
434,0.0488758516
435,0.0782013654
436,0.0782013654
437,0.0782013654
438,0.0879765415
439,0.1075268864
440,0.1075268864
441,0.1075268864
442,0.1075268864
443,0.1075268864
444,0.1173020482
445,0.1270772218
446,0.1173020482
447,0.1075268864
448,0.1075268864
449,0.1075268864
450,0.1368523955
451,0.1173020482
452,0.1368523955
453,0.1368523955
454,0.1466275596
455,0.1368523955
456,0.1466275596
457,0.1759530782
458,0.1955034160
459,0.2150537729
460,0.1857282543
461,0.1661779165
462,0.1564027309
463,0.1759530782
464,0.1466275596
465,0.1661779165
466,0.1955034160
467,0.1759530782
468,0.1857282543
469,0.1857282543
470,0.1955034160
471,0.2248289346
472,0.2052785873
473,0.1955034160
474,0.1857282543
475,0.1955034160
476,0.1955034160
477,0.2052785873
478,0.1759530782
479,0.1857282543
480,0.1857282543
481,0.1857282543
482,0.1564027309
483,0.1368523955
484,0.1270772218
485,0.1270772218
486,0.1270772218
487,0.1270772218
488,0.1173020482
489,0.1173020482
490,0.1173020482
491,0.1075268864
492,0.1075268864
493,0.0977517032
494,0.0977517032
495,0.0782013654
496,0.0684261989
497,0.0684261989
498,0.0684261989
499,0.0586510229
500,0.0586510229
501,0.0684261989
502,0.0684261989
503,0.0684261989
504,0.0684261989
505,0.0586510229
506,0.0586510229
507,0.0684261989
508,0.0586510229
509,0.0586510229
510,0.0586510229
511,0.0586510229
512,0.0684261989
513,0.0586510229
514,0.0586510229
515,0.0488758516
516,0.0488758516
517,0.0488758516
518,0.0391006832
519,0.0391006832
520,0.0391006832
521,0.0391006832
522,0.0293255119
523,0.0293255119
524,0.0293255119
525,0.0391006832
526,0.0293255119
527,0.0293255119
528,0.0293255119
529,0.0293255119
530,0.0391006832
531,0.0293255119
532,0.0195503416
533,0.0293255119
534,0.0293255119
535,0.0293255119
536,0.0195503416
537,0.0195503416
538,0.0195503416
539,0.0195503416
540,0.0195503416
541,0.0195503416
542,0.0195503416
543,0.0097751703
544,0.0097751703
545,0.0097751703
546,0.0097751703
547,0.0097751703
548,0.0097751703
549,0.0097751703
550,0.0000000000
551,0.0000000000
552,0.0000000000
553,0.0097751703
554,0.0195503416
555,0.0195503416
556,0.0293255119
557,0.0293255119
558,0.0293255119
559,0.0195503416
560,0.0195503416
561,0.0195503416
562,0.0097751703
563,0.0097751703
564,0.0195503416
565,0.0097751703
566,0.0000000000
567,0.0000000000
568,0.0000000000
569,0.0000000000
570,0.0000000000
571,0.0000000000
572,0.0000000000
573,0.0000000000
574,0.0000000000
575,0.0000000000
576,0.0000000000
577,0.0000000000
578,0.0000000000
579,0.0000000000
580,0.0684261989
581,0.0000000000
582,0.0097751703
583,0.0097751703
584,0.0195503416
585,0.0293255119
586,0.0391006832
587,0.0391006832
588,0.0586510229
589,0.0586510229
590,0.0684261989
591,0.0879765415
592,0.0782013654
593,0.0684261989
594,0.0684261989
595,0.0684261989
596,0.0684261989
597,0.0684261989
598,0.0782013654
599,0.0977517032
600,0.1075268864
601,0.0977517032
602,0.1075268864
603,0.1173020482
604,0.1270772218
605,0.1368523955
606,0.1368523955
607,0.1466275596
608,0.1368523955
609,0.1466275596
610,0.1466275596
611,0.1661779165
612,0.1466275596
613,0.1661779165
614,0.1759530782
615,0.1857282543
616,0.1955034160
617,0.1857282543
618,0.1857282543
619,0.1661779165
620,0.1857282543
621,0.1857282543
622,0.2052785873
623,0.2150537729
624,0.1857282543
625,0.1857282543
626,0.1661779165
627,0.1759530782
628,0.1564027309
629,0.1466275596
630,0.1564027309
631,0.1466275596
632,0.1368523955
633,0.1368523955
634,0.1466275596
635,0.1564027309
636,0.1759530782
637,0.1857282543
638,0.1564027309
639,0.1564027309
640,0.1564027309
641,0.1564027309
642,0.1564027309
643,0.1270772218
644,0.1270772218
645,0.1270772218
646,0.1173020482
647,0.0977517032
648,0.1075268864
649,0.1173020482
650,0.1075268864
651,0.1075268864
652,0.0879765415
653,0.0977517032
654,0.0977517032
655,0.1075268864
656,0.1075268864
657,0.1075268864
658,0.1075268864
659,0.1368523955
660,0.1368523955
661,0.1270772218
662,0.1173020482
663,0.1075268864
664,0.0977517032
665,0.1075268864
666,0.1075268864
667,0.0879765415
668,0.0879765415
669,0.0879765415
670,0.0977517032
671,0.0782013654
672,0.0586510229
673,0.0684261989
674,0.0586510229
675,0.0586510229
676,0.0586510229
677,0.0782013654
678,0.0782013654
679,0.0684261989
680,0.0586510229
681,0.0488758516
682,0.0488758516
683,0.0391006832
684,0.0391006832
685,0.0293255119
686,0.0293255119
687,0.0293255119
688,0.0195503416
689,0.0097751703
690,0.0097751703
691,0.0097751703
692,0.0195503416
693,0.0195503416
694,0.0195503416
695,0.0195503416
696,0.0097751703
697,0.0097751703
698,0.0097751703
699,0.0097751703
700,0.0097751703
701,0.0097751703
702,0.0293255119
703,0.0195503416
704,0.0195503416
705,0.0097751703
706,0.0097751703
707,0.0097751703
708,0.0097751703
709,0.0000000000
710,0.0000000000
711,0.0000000000
712,0.0000000000
713,0.0000000000
714,0.0684261989
715,0.0000000000
716,0.0000000000
717,0.0000000000
718,0.0097751703
719,0.0000000000
720,0.0000000000
721,0.0000000000
722,0.0000000000
723,0.0000000000
724,0.0000000000
725,0.0000000000
726,0.0000000000
727,0.0000000000
728,0.0000000000
729,0.0000000000
730,0.0000000000
731,0.0000000000
732,0.0000000000
733,0.0000000000
734,0.0000000000
735,0.0000000000
736,0.0000000000
737,0.0000000000
738,0.0000000000
739,0.0000000000
740,0.0000000000
741,0.0000000000
742,0.0000000000
743,0.0000000000
744,0.0097751703
745,0.0097751703
746,0.0097751703
747,0.0195503416
748,0.0293255119
749,0.0293255119
750,0.0391006832
751,0.0488758516
752,0.0586510229
753,0.0586510229
754,0.0782013654
755,0.0782013654
756,0.0879765415
757,0.0879765415
758,0.0782013654
759,0.0782013654
760,0.0782013654
761,0.0977517032
762,0.1075268864
763,0.1075268864
764,0.1368523955
765,0.1661779165
766,0.2150537729
767,0.2346040964
768,0.2639296054
769,0.2834799575
770,0.3128054618
771,0.3030303001
772,0.2639296054
773,0.2541544437
774,0.2443792819
775,0.2639296054
776,0.2248289346
777,0.2150537729
778,0.2346040964
779,0.2346040964
780,0.2248289346
781,0.2346040964
782,0.2248289346
783,0.2639296054
784,0.2248289346
785,0.2932551193
786,0.2052785873
787,0.1857282543
788,0.2248289346
789,0.2248289346
790,0.1955034160
791,0.1759530782
792,0.1564027309
793,0.1466275596
794,0.1661779165
795,0.1564027309
796,0.1466275596
797,0.1270772218
798,0.1075268864
799,0.1075268864
800,0.0977517032
801,0.0782013654
802,0.0782013654
803,0.0684261989
804,0.0684261989
805,0.0684261989
806,0.0684261989
807,0.0684261989
808,0.0586510229
809,0.0586510229
810,0.0488758516
811,0.0488758516
812,0.0586510229
813,0.0586510229
814,0.0488758516
815,0.0488758516
816,0.0488758516
817,0.0488758516
818,0.0391006832
819,0.0684261989
820,0.0684261989
821,0.0586510229
822,0.0684261989
823,0.0586510229
824,0.0488758516
825,0.0488758516
826,0.0391006832
827,0.0293255119
828,0.0391006832
829,0.0293255119
830,0.0293255119
831,0.0195503416
832,0.0293255119
833,0.0195503416
834,0.0195503416
835,0.0195503416
836,0.0097751703
837,0.0097751703
838,0.0097751703
839,0.0097751703
840,0.0195503416
841,0.0195503416
842,0.0195503416
843,0.0195503416
844,0.0195503416
845,0.0097751703
846,0.0097751703
847,0.0000000000
848,0.0097751703
849,0.0000000000
850,0.0097751703
851,0.0097751703
852,0.0097751703
853,0.0293255119
854,0.0391006832
855,0.0391006832
856,0.0293255119
857,0.0293255119
858,0.0195503416
859,0.0195503416
860,0.0097751703
861,0.0195503416
862,0.0195503416
863,0.0195503416
864,0.0097751703
865,0.0097751703
866,0.0097751703
867,0.0097751703
868,0.0097751703
869,0.0000000000
870,0.0097751703
871,0.0097751703
872,0.0195503416
873,0.0195503416
874,0.0195503416
875,0.0097751703
876,0.0097751703
877,0.0097751703
878,0.0097751703
879,0.0000000000
880,0.0000000000
881,0.0000000000
882,0.0000000000
883,0.0097751703
884,0.0097751703
885,0.0097751703
886,0.0195503416
887,0.0293255119
888,0.0293255119
889,0.0391006832
890,0.0391006832
891,0.0391006832
892,0.0586510229
893,0.0586510229
894,0.0684261989
895,0.0879765415
896,0.0977517032
897,0.0879765415
898,0.0977517032
899,0.0977517032
900,0.1075268864
901,0.1075268864
902,0.1368523955
903,0.1368523955
904,0.1368523955
905,0.1368523955
906,0.1466275596
907,0.1564027309
908,0.1368523955
909,0.1466275596
910,0.1270772218
911,0.1466275596
912,0.1564027309
913,0.1564027309
914,0.1661779165
915,0.1759530782
916,0.1759530782
917,0.1759530782
918,0.1955034160
919,0.1759530782
920,0.1857282543
921,0.1759530782
922,0.1564027309
923,0.1759530782
924,0.1564027309
925,0.1661779165
926,0.1564027309
927,0.1466275596
928,0.1661779165
929,0.1661779165
930,0.1759530782
931,0.1564027309
932,0.1759530782
933,0.1759530782
934,0.1564027309
935,0.1368523955
936,0.1466275596
937,0.1368523955
938,0.1173020482
939,0.1173020482
940,0.0977517032
941,0.0977517032
942,0.0879765415
943,0.0879765415
944,0.0782013654
945,0.0782013654
946,0.0782013654
947,0.0684261989
948,0.0782013654
949,0.0879765415
950,0.0684261989
951,0.0684261989
952,0.0586510229
953,0.0488758516
954,0.0488758516
955,0.0488758516
956,0.0586510229
957,0.0586510229
958,0.0586510229
959,0.0488758516
960,0.0488758516
961,0.0391006832
962,0.0684261989
963,0.0684261989
964,0.0586510229
965,0.0488758516
966,0.0391006832
967,0.0391006832
968,0.0293255119
969,0.0293255119
970,0.0293255119
971,0.0391006832
972,0.0391006832
973,0.0293255119
974,0.0293255119
975,0.0293255119
976,0.0293255119
977,0.0195503416
978,0.0195503416
979,0.0195503416
980,0.0195503416
981,0.0195503416
982,0.0195503416
983,0.0195503416
984,0.0195503416
985,0.0097751703
986,0.0195503416
987,0.0097751703
988,0.0195503416
989,0.0097751703
990,0.0097751703
991,0.0097751703
992,0.0097751703
993,0.0097751703
994,0.0097751703
995,0.0097751703
996,0.0097751703
997,0.0000000000
998,0.0000000000
999,0.0097751703
1000,0.0000000000
1001,0.1075268864
1002,0.0977517032
1003,0.0977517032
1004,0.0879765415
1005,0.0684261989
1006,0.0684261989
1007,0.0684261989
1008,0.0586510229
1009,0.0684261989
1010,0.0684261989
1011,0.0586510229
1012,0.0586510229
1013,0.0488758516
1014,0.0391006832
1015,0.0391006832
1016,0.0391006832
1017,0.0293255119
1018,0.0195503416
1019,0.0195503416
1020,0.0097751703
1021,0.0195503416
1022,0.0097751703
1023,0.0097751703
1024,0.0097751703
1025,0.0097751703
1026,0.0097751703
1027,0.0000000000
1028,0.0000000000
1029,0.0097751703
1030,0.0195503416
1031,0.0195503416
1032,0.0195503416
1033,0.0293255119
1034,0.0293255119
1035,0.0391006832
1036,0.0586510229
1037,0.0488758516
1038,0.0488758516
1039,0.0586510229
1040,0.0586510229
1041,0.0586510229
1042,0.0586510229
1043,0.0684261989
1044,0.0586510229
1045,0.0684261989
1046,0.0684261989
1047,0.0782013654
1048,0.0879765415
1049,0.0879765415
1050,0.1368523955
1051,0.1466275596
1052,0.1466275596
1053,0.1466275596
1054,0.1466275596
1055,0.1466275596
1056,0.1270772218
1057,0.2150537729
1058,0.1270772218
1059,0.1270772218
1060,0.1466275596
1061,0.1564027309
1062,0.1759530782
1063,0.1759530782
1064,0.1955034160
1065,0.1759530782
1066,0.1857282543
1067,0.2052785873
1068,0.2052785873
1069,0.1857282543
1070,0.2052785873
1071,0.1955034160
1072,0.2346040964
1073,0.2443792819
1074,0.2346040964
1075,0.2052785873
1076,0.2541544437
1077,0.2639296054
1078,0.2639296054
1079,0.2346040964
1080,0.2052785873
1081,0.2052785873
1082,0.1857282543
1083,0.1661779165
1084,0.1564027309
1085,0.1466275596
1086,0.1368523955
1087,0.1368523955
1088,0.1368523955
1089,0.1173020482
1090,0.1270772218
1091,0.1173020482
1092,0.1075268864
1093,0.0879765415
1094,0.0977517032
1095,0.0977517032
1096,0.0977517032
1097,0.1173020482
1098,0.1075268864
1099,0.1173020482
1100,0.0977517032
1101,0.0977517032
1102,0.0879765415
1103,0.0782013654
1104,0.0879765415
1105,0.0782013654
1106,0.0684261989
1107,0.0586510229
1108,0.0684261989
1109,0.0586510229
1110,0.0586510229
1111,0.0488758516
1112,0.0488758516
1113,0.0488758516
1114,0.0488758516
1115,0.0391006832
1116,0.0391006832
1117,0.0488758516
1118,0.0488758516
1119,0.0488758516
1120,0.0391006832
1121,0.0684261989
1122,0.0586510229
1123,0.0488758516
1124,0.0391006832
1125,0.0488758516
1126,0.0586510229
1127,0.0488758516
1128,0.0391006832
1129,0.0391006832
1130,0.0293255119
1131,0.0293255119
1132,0.0195503416
1133,0.0195503416
1134,0.0195503416
1135,0.0293255119
1136,0.0195503416
1137,0.0195503416
1138,0.0097751703
1139,0.0097751703
1140,0.0097751703
1141,0.0097751703
1142,0.0097751703
1143,0.0293255119
1144,0.0293255119
1145,0.0293255119
1146,0.0293255119
1147,0.0195503416
1148,0.0195503416
1149,0.0195503416
1150,0.0097751703
1151,0.0195503416
1152,0.0195503416
1153,0.0293255119
1154,0.0195503416
1155,0.0097751703
1156,0.0097751703
1157,0.0097751703
1158,0.0097751703
1159,0.0097751703
1160,0.0000000000
1161,0.0000000000
1162,0.0000000000
1163,0.0000000000
1164,0.0000000000
1165,0.0000000000
1166,0.0000000000
1167,0.0097751703
1168,0.0097751703
1169,0.0097751703
1170,0.0195503416
1171,0.0195503416
1172,0.0195503416
1173,0.0293255119
1174,0.0391006832
1175,0.0391006832
1176,0.0391006832
1177,0.0488758516
1178,0.0586510229
1179,0.1368523955
1180,0.0586510229
1181,0.0684261989
1182,0.0684261989
1183,0.0879765415
1184,0.0782013654
1185,0.0684261989
1186,0.0684261989
1187,0.0586510229
1188,0.0782013654
1189,0.0879765415
1190,0.0879765415
1191,0.0782013654
1192,0.0684261989
1193,0.0782013654
1194,0.0879765415
1195,0.0879765415
1196,0.0977517032
1197,0.1075268864
1198,0.1270772218
1199,0.1759530782
1200,0.1759530782
1201,0.1857282543
1202,0.1955034160
1203,0.1857282543
1204,0.2052785873
1205,0.2052785873
1206,0.2150537729
1207,0.2248289346
1208,0.2150537729
1209,0.2052785873
1210,0.2443792819
1211,0.2150537729
1212,0.2248289346
1213,0.2052785873
1214,0.2052785873
1215,0.2541544437
1216,0.2346040964
1217,0.2248289346
1218,0.2150537729
1219,0.2443792819
1220,0.2150537729
1221,0.2052785873
1222,0.2052785873
1223,0.1661779165
1224,0.1564027309
1225,0.1368523955
1226,0.1270772218
1227,0.1270772218
1228,0.1270772218
1229,0.1270772218
1230,0.1173020482
1231,0.1075268864
1232,0.0977517032
1233,0.1173020482
1234,0.0977517032
1235,0.1075268864
1236,0.0977517032
1237,0.0879765415
1238,0.0782013654
1239,0.0879765415
1240,0.0879765415
1241,0.0879765415
1242,0.0782013654
1243,0.0782013654
1244,0.0879765415
1245,0.0879765415
1246,0.0782013654
1247,0.0782013654
1248,0.0782013654
1249,0.0684261989
1250,0.0586510229
1251,0.0586510229
1252,0.0488758516
1253,0.0488758516
1254,0.0391006832
1255,0.0488758516
1256,0.0684261989
1257,0.0684261989
1258,0.0586510229
1259,0.0488758516
1260,0.0488758516
1261,0.0391006832
1262,0.0391006832
1263,0.0391006832
1264,0.0293255119
1265,0.0391006832
1266,0.0488758516
1267,0.0293255119
1268,0.0293255119
1269,0.0195503416
1270,0.0293255119
1271,0.0293255119
1272,0.0293255119
1273,0.0293255119
1274,0.0293255119
1275,0.0293255119
1276,0.0293255119
1277,0.0293255119
1278,0.0293255119
1279,0.0195503416
1280,0.0293255119
1281,0.0293255119
1282,0.0391006832
1283,0.0293255119
1284,0.0293255119
1285,0.0195503416
1286,0.0195503416
1287,0.0195503416
1288,0.0097751703
1289,0.0195503416
1290,0.0195503416
1291,0.0097751703
1292,0.0097751703
1293,0.0097751703
1294,0.0097751703
1295,0.0097751703
1296,0.0097751703
1297,0.0097751703
1298,0.0097751703
1299,0.0000000000
1300,0.0000000000
1301,0.0097751703
1302,0.0000000000
1303,0.0000000000
1304,0.0000000000
1305,0.0097751703
1306,0.0000000000
1307,0.0000000000
1308,0.0000000000
1309,0.0000000000
1310,0.0195503416
1311,0.0195503416
1312,0.0195503416
1313,0.0293255119
1314,0.0391006832
1315,0.0586510229
1316,0.0488758516
1317,0.0586510229
1318,0.0488758516
1319,0.0586510229
1320,0.0488758516
1321,0.0684261989
1322,0.0586510229
1323,0.0586510229
1324,0.0684261989
1325,0.0684261989
1326,0.0782013654
1327,0.0782013654
1328,0.0782013654
1329,0.0684261989
1330,0.0879765415
1331,0.0879765415
1332,0.0879765415
1333,0.0879765415
1334,0.0977517032
1335,0.1173020482
1336,0.1075268864
1337,0.1368523955
1338,0.1368523955
1339,0.1368523955
1340,0.1564027309
1341,0.1466275596
1342,0.1564027309
1343,0.1466275596
1344,0.1564027309
1345,0.1857282543
1346,0.1857282543
1347,0.1759530782
1348,0.2150537729
1349,0.2248289346
1350,0.2150537729
1351,0.2443792819
1352,0.2834799575
1353,0.2834799575
1354,0.2834799575
1355,0.2541544437
1356,0.2443792819
1357,0.2443792819
1358,0.2443792819
1359,0.2346040964
1360,0.2346040964
1361,0.2150537729
1362,0.2248289346
1363,0.2150537729
1364,0.2052785873
1365,0.2052785873
1366,0.2150537729
1367,0.1857282543
1368,0.1759530782
1369,0.1661779165
1370,0.1466275596
1371,0.1270772218
1372,0.1368523955
1373,0.1270772218
1374,0.1173020482
1375,0.1075268864
1376,0.0977517032
1377,0.0879765415
1378,0.0782013654
1379,0.0879765415
1380,0.0782013654
1381,0.0782013654
1382,0.0684261989
1383,0.0782013654
1384,0.0782013654
1385,0.0879765415
1386,0.0782013654
1387,0.0684261989
1388,0.0782013654
1389,0.0684261989
1390,0.0879765415
1391,0.0782013654
1392,0.0879765415
1393,0.0879765415
1394,0.0977517032
1395,0.0879765415
1396,0.0782013654
1397,0.0684261989
1398,0.0684261989
1399,0.0782013654
1400,0.0782013654
1401,0.0684261989
1402,0.0586510229
1403,0.0586510229
1404,0.0488758516
1405,0.0488758516
1406,0.0488758516
1407,0.0488758516
1408,0.0391006832
1409,0.0488758516
1410,0.0488758516
1411,0.0391006832
1412,0.0391006832
1413,0.0391006832
1414,0.0293255119
1415,0.0293255119
1416,0.0293255119
1417,0.0195503416
1418,0.0195503416
1419,0.0195503416
1420,0.0097751703
1421,0.0097751703
1422,0.0195503416
1423,0.0195503416
1424,0.0391006832
1425,0.0488758516
1426,0.0391006832
1427,0.0293255119
1428,0.0195503416
1429,0.0195503416
1430,0.0195503416
1431,0.0195503416
1432,0.0097751703
1433,0.0097751703
1434,0.0195503416
1435,0.0097751703
1436,0.0097751703
1437,0.0097751703
1438,0.0097751703
1439,0.0000000000
1440,0.0000000000
1441,0.0097751703
1442,0.0097751703
1443,0.0000000000
1444,0.0000000000
1445,0.0000000000
1446,0.0097751703
1447,0.0097751703
1448,0.0097751703
1449,0.0097751703
1450,0.0195503416
1451,0.0195503416
1452,0.0293255119
1453,0.0391006832
1454,0.0488758516
1455,0.0586510229
1456,0.0586510229
1457,0.0586510229
1458,0.0684261989
1459,0.0879765415
1460,0.0782013654
1461,0.0782013654
1462,0.1075268864
1463,0.0977517032
1464,0.0879765415
1465,0.0782013654
1466,0.0879765415
1467,0.0977517032
1468,0.1075268864
1469,0.1075268864
1470,0.1270772218
1471,0.1270772218
1472,0.1368523955
1473,0.1368523955
1474,0.1368523955
1475,0.1270772218
1476,0.1564027309
1477,0.1466275596
1478,0.1368523955
1479,0.1270772218
1480,0.1173020482
1481,0.1173020482
1482,0.1270772218
1483,0.1368523955
1484,0.1368523955
1485,0.1368523955
1486,0.1759530782
1487,0.2052785873
1488,0.2346040964
1489,0.2248289346
1490,0.2834799575
1491,0.4007820129
1492,0.3812316703
1493,0.3910068321
1494,0.3812316703
1495,0.3519061565
1496,0.3714565038
1497,0.3910068321
1498,0.3616813421
1499,0.3421309947
1500,0.3030303001
1501,0.2639296054
1502,0.2346040964
1503,0.2248289346
1504,0.2248289346
1505,0.2150537729
1506,0.2248289346
1507,0.2248289346
1508,0.2346040964
1509,0.2443792819
1510,0.2052785873
1511,0.2150537729
1512,0.1955034160
1513,0.1857282543
1514,0.1857282543
1515,0.2052785873
1516,0.1759530782
1517,0.1661779165
1518,0.1466275596
1519,0.1466275596
1520,0.1368523955
1521,0.1466275596
1522,0.1466275596
1523,0.1368523955
1524,0.1173020482
1525,0.0977517032
1526,0.0879765415
1527,0.0879765415
1528,0.0684261989
1529,0.0684261989
1530,0.0586510229
1531,0.0586510229
1532,0.0488758516
1533,0.0488758516
1534,0.0488758516
1535,0.0488758516
1536,0.0586510229
1537,0.0488758516
1538,0.0391006832
1539,0.0391006832
1540,0.0391006832
1541,0.0391006832
1542,0.0391006832
1543,0.0391006832
1544,0.0391006832
1545,0.0391006832
1546,0.0391006832
1547,0.0586510229
1548,0.0488758516
1549,0.0488758516
1550,0.0391006832
1551,0.0391006832
1552,0.0391006832
1553,0.0391006832
1554,0.0293255119
1555,0.0195503416
1556,0.0195503416
1557,0.0097751703
1558,0.0195503416
1559,0.0195503416
1560,0.0293255119
1561,0.0391006832
1562,0.0488758516
1563,0.0488758516
1564,0.0391006832
1565,0.0391006832
1566,0.0391006832
1567,0.0391006832
1568,0.0391006832
1569,0.0293255119
1570,0.0293255119
1571,0.0293255119
1572,0.0195503416
1573,0.0097751703
1574,0.0097751703
1575,0.0097751703
1576,0.0097751703
1577,0.0097751703
1578,0.0097751703
1579,0.0097751703
1580,0.0097751703
1581,0.0097751703
1582,0.0097751703
1583,0.0097751703
1584,0.0097751703
1585,0.0097751703
1586,0.0097751703
1587,0.0097751703
1588,0.0097751703
1589,0.0097751703
1590,0.0097751703
1591,0.0000000000
1592,0.0097751703
1593,0.0097751703
1594,0.0293255119
1595,0.0488758516
1596,0.0488758516
1597,0.0684261989
1598,0.0586510229
1599,0.0586510229
1600,0.0782013654
1601,0.0684261989
1602,0.0684261989
1603,0.0782013654
1604,0.0782013654
1605,0.0879765415
1606,0.0879765415
1607,0.0977517032
1608,0.0879765415
1609,0.0879765415
1610,0.0879765415
1611,0.1075268864
1612,0.1173020482
1613,0.0977517032
1614,0.1075268864
1615,0.0977517032
1616,0.0977517032
1617,0.1173020482
1618,0.1270772218
1619,0.1466275596
1620,0.1661779165
1621,0.1564027309
1622,0.1564027309
1623,0.1564027309
1624,0.1368523955
1625,0.1270772218
1626,0.1368523955
1627,0.1270772218
1628,0.1270772218
1629,0.1173020482
1630,0.1368523955
1631,0.1466275596
1632,0.1466275596
1633,0.1466275596
1634,0.1661779165
1635,0.1564027309
1636,0.1661779165
1637,0.1466275596
1638,0.1368523955
1639,0.1270772218
1640,0.1173020482
1641,0.1075268864
1642,0.0977517032
1643,0.0977517032
1644,0.1075268864
1645,0.1075268864
1646,0.0879765415
1647,0.0782013654
1648,0.0879765415
1649,0.0879765415
1650,0.0782013654
1651,0.0684261989
1652,0.0586510229
1653,0.0586510229
1654,0.0488758516
1655,0.0391006832
1656,0.0488758516
1657,0.0391006832
1658,0.0586510229
1659,0.0586510229
1660,0.0586510229
1661,0.0488758516
1662,0.0586510229
1663,0.0586510229
1664,0.0488758516
1665,0.0586510229
1666,0.0488758516
1667,0.0586510229
1668,0.0586510229
1669,0.0586510229
1670,0.0586510229
1671,0.0586510229
1672,0.0586510229
1673,0.0488758516
1674,0.0488758516
1675,0.0391006832
1676,0.0488758516
1677,0.0391006832
1678,0.0391006832
1679,0.0293255119
1680,0.0293255119
1681,0.0293255119
1682,0.0293255119
1683,0.0195503416
1684,0.0293255119
1685,0.0391006832
1686,0.0488758516
1687,0.0488758516
1688,0.0488758516
1689,0.0488758516
1690,0.0488758516
1691,0.0488758516
1692,0.0488758516
1693,0.0391006832
1694,0.0488758516
1695,0.0488758516
1696,0.0488758516
1697,0.0391006832
1698,0.0391006832
1699,0.0391006832
1700,0.0586510229
1701,0.0586510229
1702,0.0488758516
1703,0.0488758516
1704,0.0684261989
1705,0.0879765415
1706,0.0879765415
1707,0.0684261989
1708,0.0586510229
1709,0.0684261989
1710,0.0586510229
1711,0.0488758516
1712,0.0684261989
1713,0.0586510229
1714,0.0684261989
1715,0.0684261989
1716,0.0488758516
1717,0.0391006832
1718,0.0293255119
1719,0.0195503416
1720,0.0195503416
1721,0.0097751703
1722,0.0097751703
1723,0.0195503416
1724,0.0097751703
1725,0.0097751703
1726,0.0097751703
1727,0.0097751703
1728,0.0097751703
1729,0.0097751703
1730,0.0097751703
1731,0.0000000000
1732,0.0097751703
1733,0.0195503416
1734,0.0195503416
1735,0.0195503416
1736,0.0391006832
1737,0.0684261989
1738,0.0879765415
1739,0.0879765415
1740,0.0879765415
1741,0.0879765415
1742,0.0977517032
1743,0.1173020482
1744,0.1270772218
1745,0.1270772218
1746,0.1075268864
1747,0.1075268864
1748,0.1270772218
1749,0.1564027309
1750,0.1368523955
1751,0.1270772218
1752,0.1270772218
1753,0.1466275596
1754,0.1368523955
1755,0.1661779165
1756,0.1564027309
1757,0.2150537729
1758,0.2248289346
1759,0.2150537729
1760,0.2052785873
1761,0.2150537729
1762,0.2443792819
1763,0.2248289346
1764,0.2443792819
1765,0.2248289346
1766,0.2150537729
1767,0.1857282543
1768,0.2150537729
1769,0.1955034160
1770,0.1955034160
1771,0.1955034160
1772,0.2052785873
1773,0.2248289346
1774,0.1955034160
1775,0.1955034160
1776,0.2248289346
1777,0.2150537729
1778,0.2248289346
1779,0.2150537729
1780,0.2052785873
1781,0.1955034160
1782,0.1857282543
1783,0.1759530782
1784,0.1661779165
1785,0.1564027309
1786,0.1466275596
1787,0.1368523955
1788,0.1368523955
1789,0.1173020482
1790,0.1075268864
1791,0.0977517032
1792,0.1075268864
1793,0.1075268864
1794,0.0977517032
1795,0.0977517032
1796,0.0879765415
1797,0.0782013654
1798,0.0684261989
1799,0.0586510229
1800,0.0684261989
1801,0.0782013654
1802,0.0684261989
1803,0.0684261989
1804,0.0586510229
1805,0.0586510229
1806,0.0684261989
1807,0.0782013654
1808,0.0782013654
1809,0.0684261989
1810,0.0684261989
1811,0.0586510229
1812,0.0488758516
1813,0.0488758516
1814,0.0488758516
1815,0.0488758516
1816,0.0391006832
1817,0.0391006832
1818,0.0391006832
1819,0.0488758516
1820,0.0391006832
1821,0.0488758516
1822,0.0391006832
1823,0.0391006832
1824,0.0391006832
1825,0.0391006832
1826,0.0293255119
1827,0.0391006832
1828,0.0391006832
1829,0.0293255119
1830,0.0391006832
1831,0.0391006832
1832,0.0586510229
1833,0.0586510229
1834,0.0586510229
1835,0.0488758516
1836,0.0684261989
1837,0.0782013654
1838,0.0782013654
1839,0.0977517032
1840,0.0879765415
1841,0.0684261989
1842,0.0586510229
1843,0.0488758516
1844,0.0488758516
1845,0.0293255119
1846,0.0293255119
1847,0.0195503416
1848,0.0097751703
1849,0.0097751703
1850,0.0097751703
1851,0.0097751703
1852,0.0097751703
1853,0.0097751703
1854,0.0195503416
1855,0.0195503416
1856,0.0195503416
1857,0.0195503416
1858,0.0195503416
1859,0.0195503416
1860,0.0195503416
1861,0.0293255119
1862,0.0488758516
1863,0.0488758516
1864,0.0488758516
1865,0.0684261989
1866,0.0977517032
1867,0.0977517032
1868,0.0977517032
1869,0.1075268864
1870,0.1564027309
1871,0.1466275596
1872,0.1270772218
1873,0.1173020482
1874,0.1270772218
1875,0.1368523955
1876,0.1466275596
1877,0.1564027309
1878,0.1466275596
1879,0.1564027309
1880,0.1661779165
1881,0.1466275596
1882,0.1270772218
1883,0.1270772218
1884,0.1075268864
1885,0.1173020482
1886,0.1173020482
1887,0.1075268864
1888,0.1075268864
1889,0.0879765415
1890,0.0977517032
1891,0.1173020482
1892,0.1075268864
1893,0.1173020482
1894,0.1270772218
1895,0.1368523955
1896,0.1661779165
1897,0.1564027309
1898,0.1466275596
1899,0.1466275596
1900,0.1466275596
1901,0.1466275596
1902,0.1564027309
1903,0.1661779165
1904,0.1661779165
1905,0.1857282543
1906,0.1857282543
1907,0.1759530782
1908,0.1661779165
1909,0.1564027309
1910,0.1661779165
1911,0.1955034160
1912,0.1857282543
1913,0.1661779165
1914,0.1564027309
1915,0.1564027309
1916,0.1661779165
1917,0.1564027309
1918,0.1368523955
1919,0.1270772218
1920,0.1270772218
1921,0.1173020482
1922,0.1075268864
1923,0.0977517032
1924,0.1173020482
1925,0.1173020482
1926,0.0977517032
1927,0.0977517032
1928,0.0977517032
1929,0.0977517032
1930,0.0879765415
1931,0.0684261989
1932,0.0684261989
1933,0.0684261989
1934,0.0684261989
1935,0.0586510229
1936,0.0684261989
1937,0.0782013654
1938,0.0782013654
1939,0.0684261989
1940,0.0586510229
1941,0.0586510229
1942,0.0586510229
1943,0.0586510229
1944,0.0586510229
1945,0.0586510229
1946,0.0684261989
1947,0.0586510229
1948,0.0586510229
1949,0.0488758516
1950,0.0391006832
1951,0.0488758516
1952,0.0391006832
1953,0.0391006832
1954,0.0391006832
1955,0.0293255119
1956,0.0293255119
1957,0.0293255119
1958,0.0293255119
1959,0.0293255119
1960,0.0293255119
1961,0.0391006832
1962,0.0488758516
1963,0.0488758516
1964,0.0391006832
1965,0.0293255119
1966,0.0391006832
1967,0.0293255119
1968,0.0293255119
1969,0.0391006832
1970,0.0684261989
1971,0.1075268864
1972,0.1661779165
1973,0.2052785873
1974,0.2737047910
1975,0.2639296054
1976,0.2443792819
1977,0.2150537729
1978,0.1857282543
1979,0.1857282543
1980,0.1857282543
1981,0.1466275596
1982,0.1173020482
1983,0.0977517032
1984,0.0879765415
1985,0.0782013654
1986,0.0586510229
1987,0.0586510229
1988,0.0488758516
1989,0.0391006832
1990,0.0488758516
1991,0.0586510229
1992,0.0586510229
1993,0.0391006832
1994,0.0488758516
1995,0.0586510229
1996,0.0488758516
1997,0.0391006832
1998,0.0488758516
1999,0.0586510229
2000,0.0879765415
2001,1.2023460865
2002,0.9872922897
2003,0.8015640258
2004,0.6549364089
2005,0.5474095821
2006,0.4594330310
2007,0.4105571746
2008,0.3519061565
2009,0.3323558330
2010,0.2834799575
2011,0.2639296054
2012,0.2737047910
2013,0.2932551193
2014,0.2834799575
2015,0.2639296054
2016,0.2737047910
2017,0.2932551193
2018,0.3225806236
2019,0.3030303001
2020,0.3128054618
2021,0.3323558330
2022,0.3519061565
2023,0.3323558330
2024,0.3225806236
2025,0.3714565038
2026,0.3421309947
2027,0.3812316703
2028,0.4301075458
2029,0.4789833545
2030,0.4105571746
2031,0.4203323364
2032,0.4105571746
2033,0.4203323364
2034,0.4398827075
2035,0.4692081928
2036,0.4203323364
2037,0.3910068321
2038,0.3421309947
2039,0.3519061565
2040,0.3812316703
2041,0.3616813421
2042,0.3714565038
2043,0.3910068321
2044,0.4203323364
2045,0.3812316703
2046,0.3812316703
2047,0.3421309947
2048,0.3030303001
2049,0.3030303001
2050,0.2932551193
2051,0.2639296054
2052,0.2248289346
2053,0.2052785873
2054,0.2150537729
2055,0.1955034160
2056,0.1857282543
2057,0.2052785873
2058,0.2052785873
2059,0.1955034160
2060,0.1857282543
2061,0.1857282543
2062,0.1661779165
2063,0.1466275596
2064,0.1466275596
2065,0.1857282543
2066,0.1661779165
2067,0.1466275596
2068,0.1466275596
2069,0.1466275596
2070,0.1466275596
2071,0.1368523955
2072,0.1173020482
2073,0.1173020482
2074,0.1173020482
2075,0.1270772218
2076,0.1173020482
2077,0.1173020482
2078,0.1075268864
2079,0.1173020482
2080,0.0977517032
2081,0.0977517032
2082,0.0977517032
2083,0.0879765415
2084,0.0879765415
2085,0.0782013654
2086,0.0684261989
2087,0.0782013654
2088,0.0684261989
2089,0.0684261989
2090,0.0684261989
2091,0.0684261989
2092,0.0586510229
2093,0.0488758516
2094,0.0586510229
2095,0.0391006832
2096,0.0586510229
2097,0.0586510229
2098,0.0586510229
2099,0.0391006832
2100,0.0488758516
2101,0.0391006832
2102,0.0391006832
2103,0.0391006832
2104,0.0293255119
2105,0.0293255119
2106,0.0391006832
2107,0.0391006832
2108,0.0391006832
2109,0.0488758516
2110,0.0391006832
2111,0.0488758516
2112,0.0488758516
2113,0.0488758516
2114,0.0391006832
2115,0.0391006832
2116,0.0391006832
2117,0.0293255119
2118,0.0293255119
2119,0.0293255119
2120,0.0293255119
2121,0.0293255119
2122,0.0293255119
2123,0.0293255119
2124,0.0293255119
2125,0.0293255119
2126,0.0293255119
2127,0.0293255119
2128,0.0293255119
2129,0.0391006832
2130,0.0391006832
2131,0.0488758516
2132,0.0488758516
2133,0.0391006832
2134,0.0488758516
2135,0.0586510229
2136,0.0586510229
2137,0.0488758516
2138,0.0586510229