0,0.0293255119
1,0.2834799575
2,0.3910068321
3,0.4301075458
4,0.4496578693
5,0.4203323364
6,0.3421309947
7,0.2834799575
8,0.2346040964
9,0.1955034160
10,0.1564027309
11,0.1368523955
12,0.1173020482
13,0.1075268864
14,0.0879765415
15,0.0782013654
16,0.0782013654
17,0.0684261989
18,0.0684261989
19,0.0684261989
20,0.0782013654
21,0.0977517032
22,0.0879765415
23,0.0782013654
24,0.0684261989
25,0.0586510229
26,0.0586510229
27,0.0586510229
28,0.0488758516
29,0.0488758516
30,0.0391006832
31,0.0488758516
32,0.0391006832
33,0.0391006832
34,0.0391006832
35,0.0293255119
36,0.0293255119
37,0.0391006832
38,0.0391006832
39,0.0391006832
40,0.0293255119
41,0.0293255119
42,0.0293255119
43,0.0195503416
44,0.0195503416
45,0.0195503416
46,0.0195503416
47,0.0097751703
48,0.0097751703
49,0.0097751703
50,0.0000000000
51,0.0000000000
52,0.0000000000
53,0.0000000000
54,0.0000000000
55,0.0000000000
56,0.0000000000
57,0.0000000000
58,0.0000000000
59,0.0000000000
60,0.0097751703
61,0.0097751703
62,0.0000000000
63,0.0000000000
64,0.0000000000
65,0.0000000000
66,0.0000000000
67,0.0000000000
68,0.0000000000
69,0.0000000000
70,0.0000000000
71,0.0000000000
72,0.0000000000
73,0.0000000000
74,0.0000000000
75,0.0000000000
76,0.0000000000
77,0.0000000000
78,0.0000000000
79,0.0000000000
80,0.0000000000
81,0.0000000000
82,0.0000000000
83,0.0000000000
84,0.0000000000
85,0.0000000000
86,0.0000000000
87,0.0000000000
88,0.0000000000
89,0.0000000000
90,0.0000000000
91,0.0000000000
92,0.0000000000
93,0.0000000000
94,0.0000000000
95,0.0000000000
96,0.0000000000
97,0.0097751703
98,0.0097751703
99,0.0097751703
100,0.0097751703
101,0.0097751703
102,0.0195503416
103,0.0195503416
104,0.0195503416
105,0.0195503416
106,0.0293255119
107,0.0293255119
108,0.0293255119
109,0.0293255119
110,0.0293255119
111,0.0391006832
112,0.0391006832
113,0.0293255119
114,0.0293255119
115,0.0391006832
116,0.0488758516
117,0.0391006832
118,0.0391006832
119,0.0488758516
120,0.0391006832
121,0.0391006832
122,0.0391006832
123,0.0293255119
124,0.0391006832
125,0.0293255119
126,0.0293255119
127,0.0195503416
128,0.0195503416
129,0.0195503416
130,0.0195503416
131,0.0195503416
132,0.0097751703
133,0.0097751703
134,0.0195503416
135,0.0195503416
136,0.0097751703
137,0.0097751703
138,0.0097751703
139,0.0097751703
140,0.0097751703
141,0.0097751703
142,0.0097751703
143,0.0097751703
144,0.0000000000
145,0.0000000000
146,0.0000000000
147,0.0000000000
148,0.0000000000
149,0.0000000000
150,0.0000000000
151,0.0000000000
152,0.0000000000
153,0.0000000000
154,0.0000000000
155,0.0000000000
156,0.0000000000
157,0.0000000000
158,0.0000000000
159,0.0000000000
160,0.0000000000
161,0.0000000000
162,0.0000000000
163,0.0000000000
164,0.0000000000
165,0.0000000000
166,0.0000000000
167,0.0000000000
168,0.0000000000
169,0.0000000000
170,0.0000000000
171,0.0000000000
172,0.0000000000
173,0.0000000000
174,0.0000000000
175,0.0000000000
176,0.0000000000
177,0.0000000000
178,0.0000000000
179,0.0000000000
180,0.0000000000
181,0.0000000000
182,0.0000000000
183,0.0000000000
184,0.0000000000
185,0.0000000000
186,0.0000000000
187,0.0000000000
188,0.0000000000
189,0.0000000000
190,0.0000000000
191,0.0000000000
192,0.0000000000
193,0.0000000000
194,0.0000000000
195,0.0000000000
196,0.0000000000
197,0.0000000000
198,0.0000000000
199,0.0097751703
200,0.0000000000
201,0.0000000000
202,0.0000000000
203,0.0000000000
204,0.0097751703
205,0.0097751703
206,0.0195503416
207,0.0195503416
208,0.0293255119
209,0.0293255119
210,0.0391006832
211,0.0586510229
212,0.0586510229
213,0.0684261989
214,0.0684261989
215,0.0586510229
216,0.0586510229
217,0.0586510229
218,0.0586510229
219,0.0586510229
220,0.0586510229
221,0.0488758516
222,0.0488758516
223,0.0488758516
224,0.0488758516
225,0.0391006832
226,0.0391006832
227,0.0293255119
228,0.0195503416
229,0.0293255119
230,0.0293255119
231,0.0195503416
232,0.0293255119
233,0.0195503416
234,0.0195503416
235,0.0195503416
236,0.0195503416
237,0.0195503416
238,0.0195503416
239,0.0195503416
240,0.0195503416
241,0.0097751703
242,0.0195503416
243,0.0097751703
244,0.0097751703
245,0.0097751703
246,0.0097751703
247,0.0000000000
248,0.0097751703
249,0.0000000000
250,0.0000000000
251,0.0000000000
252,0.0000000000
253,0.0000000000
254,0.0000000000
255,0.0000000000
256,0.0000000000
257,0.0000000000
258,0.0000000000
259,0.0000000000
260,0.0000000000
261,0.0000000000
262,0.0000000000
263,0.0000000000
264,0.0000000000
265,0.0000000000
266,0.0000000000
267,0.0000000000
268,0.0000000000
269,0.0000000000
270,0.0000000000
271,0.0000000000
272,0.0000000000
273,0.0000000000
274,0.0000000000
275,0.0000000000
276,0.0000000000
277,0.0000000000
278,0.0000000000
279,0.0000000000
280,0.0000000000
281,0.0000000000
282,0.0000000000
283,0.0000000000
284,0.0000000000
285,0.0000000000
286,0.0000000000
287,0.0000000000
288,0.0000000000
289,0.0000000000
290,0.0000000000
291,0.0000000000
292,0.0000000000
293,0.0000000000
294,0.0000000000
295,0.0000000000
296,0.0000000000
297,0.0000000000
298,0.0000000000
299,0.0000000000
300,0.0000000000
301,0.0000000000
302,0.0000000000
303,0.0000000000
304,0.0000000000
305,0.0000000000
306,0.0000000000
307,0.0097751703
308,0.0097751703
309,0.0097751703
310,0.0097751703
311,0.0195503416
312,0.0195503416
313,0.0195503416
314,0.0195503416
315,0.0293255119
316,0.0391006832
317,0.0586510229
318,0.0586510229
319,0.0684261989
320,0.0782013654
321,0.0782013654
322,0.0684261989
323,0.0684261989
324,0.0684261989
325,0.0684261989
326,0.0684261989
327,0.0586510229
328,0.0586510229
329,0.0586510229
330,0.0488758516
331,0.0488758516
332,0.0391006832
333,0.0391006832
334,0.0488758516
335,0.0391006832
336,0.0293255119
337,0.0293255119
338,0.0293255119
339,0.0293255119
340,0.0195503416
341,0.0195503416
342,0.0195503416
343,0.0097751703
344,0.0195503416
345,0.0195503416
346,0.0195503416
347,0.0097751703
348,0.0097751703
349,0.0097751703
350,0.0195503416
351,0.0097751703
352,0.0000000000
353,0.0000000000
354,0.0000000000
355,0.0000000000
356,0.0000000000
357,0.0000000000
358,0.0000000000
359,0.0000000000
360,0.0000000000
361,0.0000000000
362,0.0000000000
363,0.0000000000
364,0.0000000000
365,0.0000000000
366,0.0000000000
367,0.0000000000
368,0.0000000000
369,0.0000000000
370,0.0097751703
371,0.0097751703
372,0.0000000000
373,0.0000000000
374,0.0000000000
375,0.0000000000
376,0.0000000000
377,0.0000000000
378,0.0000000000
379,0.0000000000
380,0.0000000000
381,0.0000000000
382,0.0000000000
383,0.0000000000
384,0.0000000000
385,0.0000000000
386,0.0000000000
387,0.0000000000
388,0.0000000000
389,0.0000000000
390,0.0000000000
391,0.0000000000
392,0.0000000000
393,0.0000000000
394,0.0000000000
395,0.0000000000
396,0.0000000000
397,0.0097751703
398,0.0000000000
399,0.0000000000
400,0.0000000000
401,0.0097751703
402,0.0097751703
403,0.0097751703
404,0.0097751703
405,0.0097751703
406,0.0097751703
407,0.0097751703
408,0.0195503416
409,0.0293255119
410,0.0391006832
411,0.0488758516
412,0.0391006832
413,0.0488758516
414,0.0488758516
415,0.0586510229
416,0.0586510229
417,0.0586510229
418,0.0586510229
419,0.0684261989
420,0.0684261989
421,0.0586510229
422,0.0488758516
423,0.0488758516
424,0.0391006832
425,0.0391006832
426,0.0391006832
427,0.0293255119
428,0.0391006832
429,0.0391006832
430,0.0391006832
431,0.0391006832
432,0.0391006832
433,0.0488758516
434,0.0391006832
435,0.0391006832
436,0.0391006832
437,0.0391006832
438,0.0391006832
439,0.0391006832
440,0.0488758516
441,0.0391006832
442,0.0391006832
443,0.0391006832
444,0.0293255119
445,0.0293255119
446,0.0391006832
447,0.0391006832
448,0.0293255119
449,0.0391006832
450,0.0391006832
451,0.0293255119
452,0.0195503416
453,0.0195503416
454,0.0195503416
455,0.0097751703
456,0.0195503416
457,0.0097751703
458,0.0097751703
459,0.0097751703
460,0.0097751703
461,0.0097751703
462,0.0097751703
463,0.0097751703
464,0.0000000000
465,0.0000000000
466,0.0097751703
467,0.0097751703
468,0.0000000000
469,0.0000000000
470,0.0000000000
471,0.0000000000
472,0.0000000000
473,0.0000000000
474,0.0097751703
475,0.0097751703
476,0.0000000000
477,0.0000000000
478,0.0000000000
479,0.0097751703
480,0.0097751703
481,0.0097751703
482,0.0097751703
483,0.0000000000
484,0.0000000000
485,0.0000000000
486,0.0000000000
487,0.0000000000
488,0.0000000000
489,0.0000000000
490,0.0000000000
491,0.0000000000
492,0.0000000000
493,0.0000000000
494,0.0000000000
495,0.0097751703
496,0.0097751703
497,0.0000000000
498,0.0000000000
499,0.0000000000
500,0.0000000000
501,0.0097751703
502,0.0000000000
503,0.0000000000
504,0.0097751703
505,0.0097751703
506,0.0097751703
507,0.0097751703
508,0.0097751703
509,0.0097751703
510,0.0195503416
511,0.0195503416
512,0.0195503416
513,0.0293255119
514,0.0488758516
515,0.0782013654
516,0.0977517032
517,0.0782013654
518,0.0879765415
519,0.0879765415
520,0.0879765415
521,0.0782013654
522,0.0684261989
523,0.0684261989
524,0.0782013654
525,0.0782013654
526,0.0684261989
527,0.0684261989
528,0.0586510229
529,0.0488758516
530,0.0391006832
531,0.0391006832
532,0.0488758516
533,0.0391006832
534,0.0391006832
535,0.0391006832
536,0.0293255119
537,0.0293255119
538,0.0293255119
539,0.0293255119
540,0.0195503416
541,0.0195503416
542,0.0293255119
543,0.0293255119
544,0.0293255119
545,0.0195503416
546,0.0195503416
547,0.0097751703
548,0.0097751703
549,0.0097751703
550,0.0195503416
551,0.0097751703
552,0.0097751703
553,0.0195503416
554,0.0195503416
555,0.0097751703
556,0.0097751703
557,0.0097751703
558,0.0097751703
559,0.0097751703
560,0.0097751703
561,0.0097751703
562,0.0097751703
563,0.0097751703
564,0.0000000000
565,0.0097751703
566,0.0097751703
567,0.0000000000
568,0.0000000000
569,0.0000000000
570,0.0000000000
571,0.0000000000
572,0.0000000000
573,0.0000000000
574,0.0000000000
575,0.0000000000
576,0.0000000000
577,0.0000000000
578,0.0000000000
579,0.0000000000
580,0.0000000000
581,0.0000000000
582,0.0000000000
583,0.0000000000
584,0.0000000000
585,0.0000000000
586,0.0000000000
587,0.0000000000
588,0.0000000000
589,0.0000000000
590,0.0000000000
591,0.0000000000
592,0.0000000000
593,0.0000000000
594,0.0000000000
595,0.0000000000
596,0.0000000000
597,0.0000000000
598,0.0000000000
599,0.0000000000
600,0.0000000000
601,0.0000000000
602,0.0000000000
603,0.0000000000
604,0.0000000000
605,0.0000000000
606,0.0000000000
607,0.0000000000
608,0.0097751703
609,0.0097751703
610,0.0195503416
611,0.0195503416
612,0.0293255119
613,0.0195503416
614,0.0195503416
615,0.0195503416
616,0.0293255119
617,0.0293255119
618,0.0293255119
619,0.0293255119
620,0.0293255119
621,0.0391006832
622,0.0391006832
623,0.0391006832
624,0.0391006832
625,0.0391006832
626,0.0391006832
627,0.0293255119
628,0.0293255119
629,0.0391006832
630,0.0488758516
631,0.0488758516
632,0.0684261989
633,0.0684261989
634,0.0684261989
635,0.0782013654
636,0.0879765415
637,0.0782013654
638,0.0782013654
639,0.0977517032
640,0.0977517032
641,0.0977517032
642,0.1075268864
643,0.0977517032
644,0.0977517032
645,0.0977517032
646,0.0879765415
647,0.0977517032
648,0.0879765415
649,0.0782013654
650,0.0684261989
651,0.0684261989
652,0.0684261989
653,0.0684261989
654,0.0586510229
655,0.0586510229
656,0.0488758516
657,0.0488758516
658,0.0488758516
659,0.0488758516
660,0.0488758516
661,0.0391006832
662,0.0391006832
663,0.0391006832
664,0.0488758516
665,0.0488758516
666,0.0391006832
667,0.0391006832
668,0.0391006832
669,0.0391006832
670,0.0488758516
671,0.0391006832
672,0.0391006832
673,0.0293255119
674,0.0293255119
675,0.0293255119
676,0.0293255119
677,0.0195503416
678,0.0293255119
679,0.0195503416
680,0.0195503416
681,0.0195503416
682,0.0195503416
683,0.0293255119
684,0.0195503416
685,0.0195503416
686,0.0195503416
687,0.0097751703
688,0.0195503416
689,0.0195503416
690,0.0195503416
691,0.0195503416
692,0.0293255119
693,0.0293255119
694,0.0195503416
695,0.0195503416
696,0.0097751703
697,0.0097751703
698,0.0097751703
699,0.0097751703
700,0.0097751703
701,0.0097751703
702,0.0097751703
703,0.0097751703
704,0.0097751703
705,0.0000000000
706,0.0000000000
707,0.0000000000
708,0.0000000000
709,0.0000000000
710,0.0000000000
711,0.0000000000
712,0.0000000000
713,0.0000000000
714,0.0097751703
715,0.0000000000
716,0.0097751703
717,0.0293255119
718,0.0293255119
719,0.0293255119
720,0.0293255119
721,0.0293255119
722,0.0195503416
723,0.0195503416
724,0.0195503416
725,0.0293255119
726,0.0293255119
727,0.0391006832
728,0.0293255119
729,0.0293255119
730,0.0293255119
731,0.0293255119
732,0.0293255119
733,0.0293255119
734,0.0391006832
735,0.0293255119
736,0.0293255119
737,0.0293255119
738,0.0391006832
739,0.0488758516
740,0.0488758516
741,0.0684261989
742,0.0684261989
743,0.0586510229
744,0.0586510229
745,0.0586510229
746,0.0586510229
747,0.0684261989
748,0.0586510229
749,0.0488758516
750,0.0586510229
751,0.0684261989
752,0.0586510229
753,0.0488758516
754,0.0586510229
755,0.0586510229
756,0.0488758516
757,0.0488758516
758,0.0488758516
759,0.0586510229
760,0.0488758516
761,0.0488758516
762,0.0488758516
763,0.0488758516
764,0.0488758516
765,0.0391006832
766,0.0586510229
767,0.0488758516
768,0.0488758516
769,0.0488758516
770,0.0391006832
771,0.0293255119
772,0.0293255119
773,0.0195503416
774,0.0293255119
775,0.0195503416
776,0.0195503416
777,0.0293255119
778,0.0293255119
779,0.0391006832
780,0.0293255119
781,0.0293255119
782,0.0293255119
783,0.0293255119
784,0.0195503416
785,0.0293255119
786,0.0195503416
787,0.0195503416
788,0.0195503416
789,0.0195503416
790,0.0293255119
791,0.0195503416
792,0.0195503416
793,0.0293255119
794,0.0195503416
795,0.0195503416
796,0.0195503416
797,0.0195503416
798,0.0195503416
799,0.0097751703
800,0.0097751703
801,0.0195503416
802,0.0195503416
803,0.0195503416
804,0.0195503416
805,0.0097751703
806,0.0097751703
807,0.0097751703
808,0.0097751703
809,0.0000000000
810,0.0000000000
811,0.0000000000
812,0.0000000000
813,0.0097751703
814,0.0097751703
815,0.0097751703
816,0.0097751703
817,0.0000000000
818,0.0000000000
819,0.0000000000
820,0.0000000000
821,0.0000000000
822,0.0000000000
823,0.0000000000
824,0.0000000000
825,0.0000000000
826,0.0000000000
827,0.0000000000
828,0.0000000000
829,0.0000000000
830,0.0000000000
831,0.0000000000
832,0.0000000000
833,0.0000000000
834,0.0000000000
835,0.0000000000
836,0.0000000000
837,0.0000000000
838,0.0000000000
839,0.0000000000
840,0.0000000000
841,0.0000000000
842,0.0000000000
843,0.0000000000
844,0.0000000000
845,0.0000000000
846,0.0000000000
847,0.0000000000
848,0.0000000000
849,0.0000000000
850,0.0097751703
851,0.0000000000
852,0.0000000000
853,0.0000000000
854,0.0097751703
855,0.0097751703
856,0.0097751703
857,0.0000000000
858,0.0000000000
859,0.0097751703
860,0.0097751703
861,0.0195503416
862,0.0195503416
863,0.0195503416
864,0.0195503416
865,0.0293255119
866,0.0293255119
867,0.0391006832
868,0.0488758516
869,0.0391006832
870,0.0391006832
871,0.0391006832
872,0.0488758516
873,0.0488758516
874,0.0488758516
875,0.0586510229
876,0.0586510229
877,0.0488758516
878,0.0586510229
879,0.0684261989
880,0.0586510229
881,0.0488758516
882,0.0586510229
883,0.0488758516
884,0.0488758516
885,0.0391006832
886,0.0488758516
887,0.0391006832
888,0.0293255119
889,0.0293255119
890,0.0293255119
891,0.0195503416
892,0.0195503416
893,0.0195503416
894,0.0293255119
895,0.0293255119
896,0.0195503416
897,0.0195503416
898,0.0195503416
899,0.0195503416
900,0.0195503416
901,0.0195503416
902,0.0293255119
903,0.0293255119
904,0.0293255119
905,0.0293255119
906,0.0195503416
907,0.0195503416
908,0.0195503416
909,0.0195503416
910,0.0195503416
911,0.0195503416
912,0.0195503416
913,0.0195503416
914,0.0097751703
915,0.0097751703
916,0.0195503416
917,0.0195503416
918,0.0097751703
919,0.0097751703
920,0.0097751703
921,0.0097751703
922,0.0097751703
923,0.0097751703
924,0.0097751703
925,0.0097751703
926,0.0097751703
927,0.0097751703
928,0.0195503416
929,0.0293255119
930,0.0195503416
931,0.0293255119
932,0.0293255119
933,0.0293255119
934,0.0488758516
935,0.0391006832
936,0.0391006832
937,0.0488758516
938,0.0684261989
939,0.0684261989
940,0.0684261989
941,0.0879765415
942,0.0879765415
943,0.0782013654
944,0.0782013654
945,0.0977517032
946,0.0879765415
947,0.0782013654
948,0.0782013654
949,0.0782013654
950,0.0684261989
951,0.0782013654
952,0.0684261989
953,0.0684261989
954,0.0684261989
955,0.0684261989
956,0.0488758516
957,0.0488758516
958,0.0391006832
959,0.0391006832
960,0.0391006832
961,0.0293255119
962,0.0391006832
963,0.0391006832
964,0.0488758516
965,0.0488758516
966,0.0586510229
967,0.0782013654
968,0.0684261989
969,0.0684261989
970,0.0684261989
971,0.0782013654
972,0.0782013654
973,0.0684261989
974,0.0782013654
975,0.0977517032
976,0.0977517032
977,0.0977517032
978,0.0977517032
979,0.0977517032
980,0.1075268864
981,0.1368523955
982,0.1466275596
983,0.1270772218
984,0.1270772218
985,0.1173020482
986,0.1173020482
987,0.1173020482
988,0.1075268864
989,0.0879765415
990,0.0782013654
991,0.0684261989
992,0.0782013654
993,0.0977517032
994,0.0782013654
995,0.0684261989
996,0.0782013654
997,0.0684261989
998,0.0684261989
999,0.0684261989
1000,0.0879765415
1001,0.9579667091
1002,0.7526881694
1003,0.5962854385
1004,0.4692081928
1005,0.3714565038
1006,0.2834799575
1007,0.2248289346
1008,0.1759530782
1009,0.1466275596
1010,0.1075268864
1011,0.0879765415
1012,0.0684261989
1013,0.0488758516
1014,0.0391006832
1015,0.0293255119
1016,0.0195503416
1017,0.0195503416
1018,0.0097751703
1019,0.0097751703
1020,0.0097751703
1021,0.0097751703
1022,0.0000000000
1023,0.0000000000
1024,0.0000000000
1025,0.0000000000
1026,0.0000000000
1027,0.0000000000
1028,0.0000000000
1029,0.0000000000
1030,0.0000000000
1031,0.0000000000
1032,0.0000000000
1033,0.0000000000
1034,0.0000000000
1035,0.0000000000
1036,0.0000000000
1037,0.0000000000
1038,0.0000000000
1039,0.0000000000
1040,0.0000000000
1041,0.0000000000
1042,0.0000000000
1043,0.0000000000
1044,0.0000000000
1045,0.0000000000
1046,0.0000000000
1047,0.0000000000
1048,0.0000000000
1049,0.0000000000
1050,0.0000000000
1051,0.0000000000
1052,0.0000000000
1053,0.0000000000
1054,0.0000000000
1055,0.0000000000
1056,0.0000000000
1057,0.0000000000
1058,0.0000000000
1059,0.0000000000
1060,0.0000000000
1061,0.0000000000
1062,0.0000000000
1063,0.0000000000
1064,0.0000000000
1065,0.0000000000
1066,0.0000000000
1067,0.0000000000
1068,0.0000000000
1069,0.0000000000
1070,0.0000000000
1071,0.0000000000
1072,0.0000000000
1073,0.0000000000
1074,0.0000000000
1075,0.0000000000
1076,0.0000000000
1077,0.0000000000
1078,0.0000000000
1079,0.0000000000
1080,0.0000000000
1081,0.0000000000
1082,0.0000000000
1083,0.0000000000
1084,0.0000000000
1085,0.0000000000
1086,0.0000000000
1087,0.0000000000
1088,0.0000000000
1089,0.0000000000
1090,0.0000000000
1091,0.0000000000
1092,0.0000000000
1093,0.0000000000
1094,0.0000000000
1095,0.0000000000
1096,0.0000000000
1097,0.0000000000
1098,0.0000000000
1099,0.0000000000
1100,0.0000000000
1101,0.0000000000
1102,0.0000000000
1103,0.0000000000
1104,0.0000000000
1105,0.0000000000
1106,0.0000000000
1107,0.0000000000
1108,0.0000000000
1109,0.0000000000
1110,0.0000000000
1111,0.0000000000
1112,0.0000000000
1113,0.0000000000
1114,0.0000000000
1115,0.0000000000
1116,0.0000000000
1117,0.0000000000
1118,0.0000000000
1119,0.0000000000
1120,0.0000000000
1121,0.0000000000
1122,0.0000000000
1123,0.0000000000
1124,0.0000000000
1125,0.0000000000
1126,0.0000000000
1127,0.0000000000
1128,0.0000000000
1129,0.0000000000
1130,0.0000000000
1131,0.0000000000
1132,0.0000000000
1133,0.0000000000
1134,0.0000000000
1135,0.0000000000
1136,0.0000000000
1137,0.0000000000
1138,0.0000000000
1139,0.0000000000
1140,0.0000000000
1141,0.0000000000
1142,0.0000000000
1143,0.0000000000
1144,0.0000000000
1145,0.0000000000
1146,0.0000000000
1147,0.0000000000
1148,0.0000000000
1149,0.0000000000
1150,0.0000000000
1151,0.0000000000
1152,0.0000000000
1153,0.0000000000
1154,0.0000000000
1155,0.0000000000
1156,0.0000000000
1157,0.0000000000
1158,0.0000000000
1159,0.0000000000
1160,0.0000000000
1161,0.0000000000
1162,0.0000000000
1163,0.0000000000
1164,0.0000000000
1165,0.0000000000
1166,0.0000000000
1167,0.0000000000
1168,0.0000000000
1169,0.0000000000
1170,0.0000000000
1171,0.0000000000
1172,0.0000000000
1173,0.0000000000
1174,0.0000000000
1175,0.0000000000
1176,0.0000000000
1177,0.0000000000
1178,0.0000000000
1179,0.0000000000
1180,0.0000000000
1181,0.0000000000
1182,0.0000000000
1183,0.0000000000
1184,0.0000000000
1185,0.0000000000
1186,0.0000000000
1187,0.0000000000
1188,0.0000000000
1189,0.0000000000
1190,0.0000000000
1191,0.0000000000
1192,0.0000000000
1193,0.0000000000
1194,0.0000000000
1195,0.0000000000
1196,0.0000000000
1197,0.0000000000
1198,0.0000000000
1199,0.0000000000
1200,0.0000000000
1201,0.0000000000
1202,0.0000000000
1203,0.0000000000
1204,0.0000000000
1205,0.0000000000
1206,0.0000000000
1207,0.0000000000
1208,0.0000000000
1209,0.0000000000
1210,0.0000000000
1211,0.0000000000
1212,0.0000000000
1213,0.0000000000
1214,0.0000000000
1215,0.0000000000
1216,0.0000000000
1217,0.0000000000
1218,0.0000000000
1219,0.0000000000
1220,0.0000000000
1221,0.0000000000
1222,0.0000000000
1223,0.0000000000
1224,0.0000000000
1225,0.0000000000
1226,0.0000000000
1227,0.0000000000
1228,0.0000000000
1229,0.0000000000
1230,0.0000000000
1231,0.0000000000
1232,0.0000000000
1233,0.0000000000
1234,0.0000000000
1235,0.0000000000
1236,0.0000000000
1237,0.0000000000
1238,0.0000000000
1239,0.0000000000
1240,0.0000000000
1241,0.0000000000
1242,0.0000000000
1243,0.0000000000
1244,0.0000000000
1245,0.0000000000
1246,0.0000000000
1247,0.0000000000
1248,0.0000000000
1249,0.0000000000
1250,0.0000000000
1251,0.0000000000
1252,0.0000000000
1253,0.0000000000
1254,0.0000000000
1255,0.0000000000
1256,0.0000000000
1257,0.0000000000
1258,0.0000000000
1259,0.0000000000
1260,0.0000000000
1261,0.0000000000
1262,0.0000000000
1263,0.0000000000
1264,0.0000000000
1265,0.0000000000
1266,0.0000000000
1267,0.0000000000
1268,0.0000000000
1269,0.0000000000
1270,0.0000000000
1271,0.0000000000
1272,0.0000000000
1273,0.0000000000
1274,0.0000000000
1275,0.0000000000
1276,0.0000000000
1277,0.0000000000
1278,0.0000000000
1279,0.0000000000
1280,0.0000000000
1281,0.0000000000
1282,0.0000000000
1283,0.0000000000
1284,0.0000000000
1285,0.0000000000
1286,0.0000000000
1287,0.0000000000
1288,0.0000000000
1289,0.0000000000
1290,0.0000000000
1291,0.0000000000
1292,0.0000000000
1293,0.0000000000
1294,0.0000000000
1295,0.0000000000
1296,0.0000000000
1297,0.0000000000
1298,0.0000000000
1299,0.0000000000
1300,0.0000000000
1301,0.0000000000
1302,0.0000000000
1303,0.0000000000
1304,0.0000000000
1305,0.0000000000
1306,0.0000000000
1307,0.0000000000
1308,0.0000000000
1309,0.0000000000
1310,0.0000000000
1311,0.0000000000
1312,0.0000000000
1313,0.0000000000
1314,0.0000000000
1315,0.0000000000
1316,0.0000000000
1317,0.0000000000
1318,0.0000000000
1319,0.0097751703
1320,0.0000000000
1321,0.0000000000
1322,0.0000000000
1323,0.0000000000
1324,0.0000000000
1325,0.0000000000
1326,0.0000000000
1327,0.0000000000
1328,0.0000000000
1329,0.0000000000
1330,0.0000000000
1331,0.0000000000
1332,0.0000000000
1333,0.0000000000
1334,0.0000000000
1335,0.0000000000
1336,0.0000000000
1337,0.0000000000
1338,0.0000000000
1339,0.0000000000
1340,0.0000000000
1341,0.0000000000
1342,0.0000000000
1343,0.0000000000
1344,0.0000000000
1345,0.0000000000
1346,0.0000000000
1347,0.0000000000
1348,0.0000000000
1349,0.0000000000
1350,0.0000000000
1351,0.0000000000
1352,0.0000000000
1353,0.0000000000
1354,0.0000000000
1355,0.0000000000
1356,0.0000000000
1357,0.0000000000
1358,0.0000000000
1359,0.0000000000
1360,0.0000000000
1361,0.0000000000
1362,0.0000000000
1363,0.0000000000
1364,0.0000000000
1365,0.0000000000
1366,0.0000000000
1367,0.0000000000
1368,0.0000000000
1369,0.0000000000
1370,0.0000000000
1371,0.0000000000
1372,0.0000000000
1373,0.0000000000
1374,0.0000000000
1375,0.0000000000
1376,0.0000000000
1377,0.0000000000
1378,0.0000000000
1379,0.0000000000
1380,0.0000000000
1381,0.0000000000
1382,0.0000000000
1383,0.0000000000
1384,0.0000000000
1385,0.0000000000
1386,0.0000000000
1387,0.0000000000
1388,0.0000000000
1389,0.0000000000
1390,0.0000000000
1391,0.0000000000
1392,0.0000000000
1393,0.0000000000
1394,0.0000000000
1395,0.0000000000
1396,0.0000000000
1397,0.0000000000
1398,0.0000000000
1399,0.0000000000
1400,0.0000000000
1401,0.0000000000
1402,0.0000000000
1403,0.0000000000
1404,0.0000000000
1405,0.0000000000
1406,0.0000000000
1407,0.0000000000
1408,0.0000000000
1409,0.0000000000
1410,0.0000000000
1411,0.0000000000
1412,0.0000000000
1413,0.0000000000
1414,0.0000000000
1415,0.0000000000
1416,0.0000000000
1417,0.0000000000
1418,0.0000000000
1419,0.0000000000
1420,0.0000000000
1421,0.0000000000
1422,0.0000000000
1423,0.0000000000
1424,0.0000000000
1425,0.0000000000
1426,0.0000000000
1427,0.0000000000
1428,0.0000000000
1429,0.0000000000
1430,0.0000000000
1431,0.0000000000
1432,0.0000000000
1433,0.0000000000
1434,0.0000000000
1435,0.0000000000
1436,0.0000000000
1437,0.0000000000
1438,0.0000000000
1439,0.0000000000
1440,0.0000000000
1441,0.0000000000
1442,0.0000000000
1443,0.0000000000
1444,0.0000000000
1445,0.0000000000
1446,0.0000000000
1447,0.0000000000
1448,0.0000000000
1449,0.0000000000
1450,0.0000000000
1451,0.0000000000
1452,0.0000000000
1453,0.0000000000
1454,0.0000000000
1455,0.0000000000
1456,0.0000000000
1457,0.0000000000
1458,0.0000000000
1459,0.0000000000
1460,0.0000000000
1461,0.0000000000
1462,0.0000000000
1463,0.0000000000
1464,0.0000000000
1465,0.0000000000
1466,0.0000000000
1467,0.0000000000
1468,0.0000000000
1469,0.0000000000
1470,0.0000000000
1471,0.0000000000
1472,0.0000000000
1473,0.0000000000
1474,0.0000000000
1475,0.0000000000
1476,0.0000000000
1477,0.0000000000
1478,0.0000000000
1479,0.0000000000
1480,0.0000000000
1481,0.0000000000
1482,0.0000000000
1483,0.0000000000
1484,0.0000000000
1485,0.0000000000
1486,0.0000000000
1487,0.0000000000
1488,0.0000000000
1489,0.0000000000
1490,0.0000000000
1491,0.0000000000
1492,0.0000000000
1493,0.0000000000
1494,0.0000000000
1495,0.0000000000
1496,0.0000000000
1497,0.0000000000
1498,0.0000000000
1499,0.0000000000
1500,0.0000000000
1501,0.0000000000
1502,0.0000000000
1503,0.0000000000
1504,0.0000000000
1505,0.0000000000
1506,0.0000000000
1507,0.0000000000
1508,0.0000000000
1509,0.0000000000
1510,0.0000000000
1511,0.0000000000
1512,0.0000000000
1513,0.0000000000
1514,0.0000000000
1515,0.0000000000
1516,0.0000000000
1517,0.0000000000
1518,0.0000000000
1519,0.0000000000
1520,0.0000000000
1521,0.0000000000
1522,0.0000000000
1523,0.0000000000
1524,0.0000000000
1525,0.0000000000
1526,0.0000000000
1527,0.0000000000
1528,0.0000000000
1529,0.0000000000
1530,0.0000000000
1531,0.0000000000
1532,0.0000000000
1533,0.0000000000
1534,0.0000000000
1535,0.0000000000
1536,0.0000000000
1537,0.0000000000
1538,0.0000000000
1539,0.0000000000
1540,0.0000000000
1541,0.0000000000
1542,0.0000000000
1543,0.0000000000
1544,0.0000000000
1545,0.0000000000
1546,0.0000000000
1547,0.0000000000
1548,0.0000000000
1549,0.0000000000
1550,0.0000000000
1551,0.0000000000
1552,0.0000000000
1553,0.0000000000
1554,0.0000000000
1555,0.0000000000
1556,0.0000000000
1557,0.0000000000
1558,0.0000000000
1559,0.0000000000
1560,0.0000000000
1561,0.0000000000
1562,0.0000000000
1563,0.0000000000
1564,0.0000000000
1565,0.0000000000
1566,0.0000000000
1567,0.0000000000
1568,0.0000000000
1569,0.0000000000
1570,0.0000000000
1571,0.0000000000
1572,0.0000000000
1573,0.0000000000
1574,0.0000000000
1575,0.0000000000
1576,0.0000000000
1577,0.0000000000
1578,0.0000000000
1579,0.0000000000
1580,0.0000000000
1581,0.0000000000
1582,0.0000000000
1583,0.0000000000
1584,0.0000000000
1585,0.0000000000
1586,0.0000000000
1587,0.0000000000
1588,0.0000000000
1589,0.0000000000
1590,0.0000000000
1591,0.0000000000
1592,0.0000000000
1593,0.0000000000
1594,0.0000000000
1595,0.0000000000
1596,0.0000000000
1597,0.0000000000
1598,0.0000000000
1599,0.0000000000
1600,0.0000000000
1601,0.0000000000
1602,0.0000000000
1603,0.0000000000
1604,0.0000000000
1605,0.0000000000
1606,0.0000000000
1607,0.0000000000
1608,0.0000000000
1609,0.0000000000
1610,0.0000000000
1611,0.0097751703
1612,0.0000000000
1613,0.0097751703
1614,0.0097751703
1615,0.0097751703
1616,0.0000000000
1617,0.0000000000
1618,0.0097751703
1619,0.0097751703
1620,0.0000000000
1621,0.0000000000
1622,0.0097751703
1623,0.0097751703
1624,0.0000000000
1625,0.0000000000
1626,0.0000000000
1627,0.0000000000
1628,0.0000000000
1629,0.0000000000
1630,0.0000000000
1631,0.0000000000
1632,0.0000000000
1633,0.0000000000
1634,0.0000000000
1635,0.0000000000
1636,0.0000000000
1637,0.0000000000
1638,0.0000000000
1639,0.0000000000
1640,0.0000000000
1641,0.0000000000
1642,0.0000000000
1643,0.0000000000
1644,0.0000000000
1645,0.0000000000
1646,0.0000000000
1647,0.0000000000
1648,0.0000000000
1649,0.0000000000
1650,0.0000000000
1651,0.0000000000
1652,0.0000000000
1653,0.0000000000
1654,0.0000000000
1655,0.0000000000
1656,0.0000000000
1657,0.0000000000
1658,0.0000000000
1659,0.0000000000
1660,0.0000000000
1661,0.0000000000
1662,0.0000000000
1663,0.0000000000
1664,0.0000000000
1665,0.0000000000
1666,0.0000000000
1667,0.0000000000
1668,0.0000000000
1669,0.0000000000
1670,0.0000000000
1671,0.0000000000
1672,0.0000000000
1673,0.0000000000
1674,0.0000000000
1675,0.0000000000
1676,0.0000000000
1677,0.0000000000
1678,0.0000000000
1679,0.0000000000
1680,0.0000000000
1681,0.0000000000
1682,0.0000000000
1683,0.0000000000
1684,0.0000000000
1685,0.0000000000
1686,0.0000000000
1687,0.0000000000
1688,0.0000000000
1689,0.0000000000
1690,0.0000000000
1691,0.0000000000
1692,0.0000000000
1693,0.0000000000
1694,0.0000000000
1695,0.0000000000
1696,0.0000000000
1697,0.0000000000
1698,0.0000000000
1699,0.0000000000
1700,0.0000000000
1701,0.0000000000
1702,0.0000000000
1703,0.0000000000
1704,0.0000000000
1705,0.0000000000
1706,0.0000000000
1707,0.0000000000
1708,0.0000000000
1709,0.0000000000
1710,0.0000000000
1711,0.0000000000
1712,0.0000000000
1713,0.0000000000
1714,0.0000000000
1715,0.0000000000
1716,0.0000000000
1717,0.0000000000
1718,0.0000000000
1719,0.0000000000
1720,0.0000000000
1721,0.0000000000
1722,0.0000000000
1723,0.0000000000
1724,0.0000000000
1725,0.0000000000
1726,0.0000000000
1727,0.0000000000
1728,0.0000000000
1729,0.0000000000
1730,0.0000000000
1731,0.0000000000
1732,0.0000000000
1733,0.0000000000
1734,0.0000000000
1735,0.0000000000
1736,0.0000000000
1737,0.0000000000
1738,0.0000000000
1739,0.0000000000
1740,0.0000000000
1741,0.0000000000
1742,0.0000000000
1743,0.0000000000
1744,0.0000000000
1745,0.0000000000
1746,0.0000000000
1747,0.0000000000
1748,0.0000000000
1749,0.0000000000
1750,0.0000000000
1751,0.0000000000
1752,0.0000000000
1753,0.0000000000
1754,0.0000000000
1755,0.0000000000
1756,0.0000000000
1757,0.0000000000
1758,0.0000000000
1759,0.0000000000
1760,0.0000000000
1761,0.0000000000
1762,0.0000000000
1763,0.0000000000
1764,0.0000000000
1765,0.0000000000
1766,0.0000000000
1767,0.0000000000
1768,0.0000000000
1769,0.0000000000
1770,0.0000000000
1771,0.0000000000
1772,0.0000000000
1773,0.0000000000
1774,0.0000000000
1775,0.0000000000
1776,0.0000000000
1777,0.0000000000
1778,0.0000000000
1779,0.0000000000
1780,0.0000000000
1781,0.0000000000
1782,0.0000000000
1783,0.0000000000
1784,0.0000000000
1785,0.0000000000
1786,0.0000000000
1787,0.0000000000
1788,0.0000000000
1789,0.0000000000
1790,0.0000000000
1791,0.0000000000
1792,0.0000000000
1793,0.0000000000
1794,0.0000000000
1795,0.0000000000
1796,0.0000000000
1797,0.0000000000
1798,0.0000000000
1799,0.0000000000
1800,0.0000000000
1801,0.0000000000
1802,0.0000000000
1803,0.0000000000
1804,0.0000000000
1805,0.0000000000
1806,0.0000000000
1807,0.0000000000
1808,0.0000000000
1809,0.0000000000
1810,0.0000000000
1811,0.0000000000
1812,0.0000000000
1813,0.0000000000
1814,0.0000000000
1815,0.0000000000
1816,0.0000000000
1817,0.0000000000
1818,0.0000000000
1819,0.0000000000
1820,0.0000000000
1821,0.0000000000
1822,0.0000000000
1823,0.0000000000
1824,0.0000000000
1825,0.0000000000
1826,0.0000000000
1827,0.0000000000
1828,0.0000000000
1829,0.0000000000
1830,0.0000000000
1831,0.0000000000
1832,0.0000000000
1833,0.0000000000
1834,0.0000000000
1835,0.0000000000
1836,0.0000000000
1837,0.0000000000
1838,0.0000000000
1839,0.0000000000
1840,0.0000000000
1841,0.0000000000
1842,0.0000000000
1843,0.0000000000
1844,0.0000000000
1845,0.0000000000
1846,0.0000000000
1847,0.0000000000
1848,0.0000000000
1849,0.0000000000
1850,0.0000000000
1851,0.0000000000
1852,0.0000000000
1853,0.0000000000
1854,0.0000000000
1855,0.0000000000
1856,0.0000000000
1857,0.0000000000
1858,0.0000000000
1859,0.0000000000
1860,0.0000000000
1861,0.0000000000
1862,0.0000000000
1863,0.0000000000
1864,0.0000000000
1865,0.0000000000
1866,0.0000000000
1867,0.0000000000
1868,0.0000000000
1869,0.0000000000
1870,0.0000000000
1871,0.0000000000
1872,0.0000000000
1873,0.0000000000
1874,0.0000000000
1875,0.0000000000
1876,0.0000000000
1877,0.0000000000
1878,0.0000000000
1879,0.0000000000
1880,0.0000000000
1881,0.0000000000
1882,0.0000000000
1883,0.0000000000
1884,0.0000000000
1885,0.0000000000
1886,0.0000000000
1887,0.0000000000
1888,0.0000000000
1889,0.0000000000
1890,0.0000000000
1891,0.0000000000
1892,0.0000000000
1893,0.0000000000
1894,0.0000000000
1895,0.0000000000
1896,0.0000000000
1897,0.0000000000
1898,0.0000000000
1899,0.0000000000
1900,0.0000000000
1901,0.0000000000
1902,0.0000000000
1903,0.0000000000
1904,0.0000000000
1905,0.0000000000
1906,0.0000000000
1907,0.0000000000
1908,0.0000000000
1909,0.0000000000
1910,0.0000000000
1911,0.0000000000
1912,0.0000000000
1913,0.0000000000
1914,0.0000000000
1915,0.0000000000
1916,0.0000000000
1917,0.0000000000
1918,0.0000000000
1919,0.0000000000
1920,0.0000000000
1921,0.0000000000
1922,0.0000000000
1923,0.0000000000
1924,0.0000000000
1925,0.0000000000
1926,0.0000000000
1927,0.0000000000
1928,0.0000000000
1929,0.0000000000
1930,0.0000000000
1931,0.0000000000
1932,0.0000000000
1933,0.0000000000
1934,0.0000000000
1935,0.0000000000
1936,0.0000000000
1937,0.0000000000
1938,0.0000000000
1939,0.0000000000
1940,0.0000000000
1941,0.0000000000
1942,0.0000000000
1943,0.0000000000
1944,0.0000000000
1945,0.0000000000
1946,0.0000000000
1947,0.0000000000
1948,0.0000000000
1949,0.0000000000
1950,0.0000000000
1951,0.0000000000
1952,0.0000000000
1953,0.0000000000
1954,0.0000000000
1955,0.0000000000
1956,0.0000000000
1957,0.0000000000
1958,0.0000000000
1959,0.0000000000
1960,0.0000000000
1961,0.0000000000
1962,0.0000000000
1963,0.0000000000
1964,0.0000000000
1965,0.0000000000
1966,0.0000000000
1967,0.0000000000
1968,0.0000000000
1969,0.0000000000
1970,0.0000000000
1971,0.0000000000
1972,0.0000000000
1973,0.0000000000
1974,0.0000000000
1975,0.0000000000
1976,0.0000000000
1977,0.0000000000
1978,0.0000000000
1979,0.0000000000
1980,0.0000000000
1981,0.0000000000
1982,0.0000000000
1983,0.0000000000
1984,0.0000000000
1985,0.0000000000
1986,0.0000000000
1987,0.0000000000
1988,0.0000000000
1989,0.0000000000
1990,0.0000000000
1991,0.0000000000
1992,0.0000000000
1993,0.0000000000
1994,0.0000000000
1995,0.0000000000
1996,0.0000000000
1997,0.0000000000
1998,0.0000000000
1999,0.0000000000
2000,0.0097751703
2001,1.1241446733
2002,0.8895405769
2003,0.7038123130
2004,0.5669599056
2005,0.4496578693
2006,0.3519061565
2007,0.2932551193
2008,0.2346040964
2009,0.1955034160
2010,0.1466275596
2011,0.1270772218
2012,0.0977517032
2013,0.0782013654
2014,0.0586510229
2015,0.0488758516
2016,0.0391006832
2017,0.0293255119
2018,0.0293255119
2019,0.0195503416
2020,0.0097751703
2021,0.0097751703
2022,0.0097751703
2023,0.0097751703
2024,0.0097751703
2025,0.0097751703
2026,0.0097751703
2027,0.0097751703
2028,0.0097751703
2029,0.0097751703
2030,0.0097751703
2031,0.0195503416
2032,0.0195503416
2033,0.0097751703
2034,0.0097751703
2035,0.0097751703
2036,0.0097751703
2037,0.0097751703
2038,0.0195503416
2039,0.0195503416
2040,0.0195503416
2041,0.0195503416
2042,0.0293255119
2043,0.0293255119
2044,0.0391006832
2045,0.0586510229
2046,0.0977517032
2047,0.1075268864
2048,0.1075268864
2049,0.1173020482
2050,0.1466275596
2051,0.1661779165
2052,0.1857282543
2053,0.2150537729
2054,0.2248289346
2055,0.2150537729
2056,0.2248289346
2057,0.2346040964
2058,0.2541544437
2059,0.2834799575
2060,0.2737047910
2061,0.2737047910
2062,0.2443792819
2063,0.2346040964
2064,0.2052785873
2065,0.1857282543
2066,0.1857282543
2067,0.1759530782
2068,0.1661779165
2069,0.1661779165
2070,0.1564027309
2071,0.1368523955
2072,0.1173020482
2073,0.1173020482
2074,0.1075268864
2075,0.1075268864
2076,0.0977517032
2077,0.0977517032
2078,0.0977517032
2079,0.0879765415
2080,0.0879765415
2081,0.0977517032
2082,0.0977517032
2083,0.0782013654
2084,0.0879765415
2085,0.0782013654
2086,0.0684261989
2087,0.0586510229
2088,0.0684261989
2089,0.0586510229
2090,0.0488758516
2091,0.0488758516
2092,0.0488758516
2093,0.0488758516
2094,0.0488758516
2095,0.0488758516
2096,0.0488758516
2097,0.0488758516
2098,0.0488758516
2099,0.0391006832
2100,0.0488758516
2101,0.0488758516
2102,0.0488758516
2103,0.0391006832
2104,0.0391006832
2105,0.0586510229
2106,0.0488758516
2107,0.0488758516
2108,0.0391006832
2109,0.0391006832
2110,0.0293255119
2111,0.0293255119
2112,0.0293255119
2113,0.0293255119
2114,0.0195503416
2115,0.0195503416
2116,0.0195503416
2117,0.0195503416
2118,0.0195503416
2119,0.0195503416
2120,0.0195503416
2121,0.0195503416
2122,0.0097751703
2123,0.0195503416
2124,0.0097751703
2125,0.0097751703
2126,0.0097751703
2127,0.0097751703
2128,0.0097751703
2129,0.0097751703
2130,0.0097751703
2131,0.0097751703
2132,0.0097751703
2133,0.0097751703
2134,0.0097751703
2135,0.0097751703
2136,0.0097751703
2137,0.0097751703
2138,0.0097751703
2139,0.0097751703
2140,0.0097751703
2141,0.0097751703
2142,0.0097751703
2143,0.0195503416
2144,0.0097751703
2145,0.0097751703
2146,0.0097751703
2147,0.0097751703
2148,0.0097751703
2149,0.0097751703
2150,0.0195503416
2151,0.0097751703
2152,0.0195503416
2153,0.0391006832
2154,0.0586510229
2155,0.0684261989
2156,0.0782013654
2157,0.0879765415
2158,0.1270772218
2159,0.1368523955
2160,0.1368523955
2161,0.1466275596
2162,0.1661779165
2163,0.2150537729
2164,0.2150537729
2165,0.2150537729
2166,0.2248289346
2167,0.1955034160
2168,0.1759530782
2169,0.1759530782
2170,0.1759530782
2171,0.1759530782
2172,0.1857282543
2173,0.1564027309
2174,0.1661779165
2175,0.1759530782
2176,0.1661779165
2177,0.1564027309
2178,0.1466275596
2179,0.1368523955
2180,0.1173020482
2181,0.1075268864
2182,0.0879765415
2183,0.0879765415
2184,0.0782013654
2185,0.0684261989
2186,0.0684261989
2187,0.0586510229
2188,0.0586510229
2189,0.0586510229
2190,0.0488758516
2191,0.0586510229
2192,0.0488758516
2193,0.0488758516
2194,0.0586510229
2195,0.0488758516
2196,0.0488758516
2197,0.0488758516
2198,0.0488758516
2199,0.0586510229
2200,0.0488758516
2201,0.0488758516
2202,0.0488758516
2203,0.0586510229
2204,0.0586510229
2205,0.0488758516
2206,0.0488758516
2207,0.0488758516
2208,0.0391006832
2209,0.0391006832
2210,0.0391006832
2211,0.0293255119
2212,0.0293255119
2213,0.0195503416
2214,0.0195503416
2215,0.0195503416
2216,0.0195503416
2217,0.0195503416
2218,0.0195503416
2219,0.0195503416
2220,0.0195503416
2221,0.0097751703
2222,0.0097751703
2223,0.0097751703
2224,0.0097751703
2225,0.0097751703
2226,0.0097751703
2227,0.0097751703
2228,0.0195503416
2229,0.0195503416
2230,0.0097751703
2231,0.0097751703
2232,0.0097751703
2233,0.0097751703
2234,0.0097751703
2235,0.0097751703
2236,0.0097751703
2237,0.0097751703
2238,0.0097751703
2239,0.0097751703
2240,0.0195503416
2241,0.0195503416
2242,0.0195503416
2243,0.0293255119
2244,0.0293255119
2245,0.0293255119
2246,0.0488758516
2247,0.0782013654
2248,0.0977517032
2249,0.1173020482
2250,0.1955034160
2251,0.1857282543
2252,0.2248289346
2253,0.2346040964
2254,0.2150537729
2255,0.2052785873
2256,0.2052785873
2257,0.2248289346
2258,0.2248289346
2259,0.2248289346
2260,0.2248289346
2261,0.2150537729
2262,0.1955034160
2263,0.2052785873
2264,0.1857282543
2265,0.1759530782
2266,0.1466275596
2267,0.1564027309
2268,0.1368523955
2269,0.1368523955
2270,0.1270772218
2271,0.1173020482
2272,0.1173020482
2273,0.0977517032
2274,0.0879765415
2275,0.0782013654
2276,0.0684261989
2277,0.0684261989
2278,0.0684261989
2279,0.0586510229
2280,0.0586510229
2281,0.0586510229
2282,0.0586510229
2283,0.0684261989
2284,0.0684261989
2285,0.0586510229
2286,0.0586510229
2287,0.0488758516
2288,0.0488758516
2289,0.0488758516
2290,0.0488758516
2291,0.0488758516
2292,0.0488758516
2293,0.0586510229
2294,0.0488758516
2295,0.0391006832
2296,0.0391006832
2297,0.0391006832
2298,0.0293255119
2299,0.0293255119
2300,0.0391006832
2301,0.0293255119
2302,0.0293255119
2303,0.0293255119
2304,0.0293255119
2305,0.0293255119
2306,0.0293255119
2307,0.0195503416
2308,0.0195503416
2309,0.0195503416
2310,0.0195503416
2311,0.0195503416
2312,0.0195503416
2313,0.0195503416
2314,0.0097751703
2315,0.0195503416
2316,0.0195503416
2317,0.0195503416
2318,0.0195503416
2319,0.0195503416
2320,0.0195503416
2321,0.0195503416
2322,0.0195503416
2323,0.0195503416
2324,0.0195503416
2325,0.0097751703
2326,0.0195503416
2327,0.0195503416
2328,0.0195503416
2329,0.0097751703
2330,0.0195503416
2331,0.0097751703
2332,0.0195503416
2333,0.0195503416
2334,0.0195503416
2335,0.0195503416
2336,0.0195503416
2337,0.0195503416
2338,0.0195503416
2339,0.0195503416
2340,0.0293255119
2341,0.0293255119
2342,0.0391006832
2343,0.0391006832
2344,0.0586510229
2345,0.0782013654
2346,0.0879765415
2347,0.0977517032
2348,0.1466275596
2349,0.1564027309
2350,0.1857282543
2351,0.2346040964
2352,0.2541544437
2353,0.2541544437
2354,0.2639296054
2355,0.2834799575
2356,0.3030303001
2357,0.3225806236
2358,0.3616813421
2359,0.3714565038
2360,0.3616813421
2361,0.3519061565
2362,0.4007820129
2363,0.3812316703
2364,0.3616813421
2365,0.3421309947
2366,0.3225806236
2367,0.3421309947
2368,0.3323558330
2369,0.3030303001
2370,0.2834799575
2371,0.2346040964
2372,0.2150537729
2373,0.1857282543
2374,0.1564027309
2375,0.1368523955
2376,0.1368523955
2377,0.1173020482
2378,0.1075268864
2379,0.1075268864
2380,0.1075268864
2381,0.1075268864
2382,0.0977517032
2383,0.0879765415
2384,0.0879765415
2385,0.0684261989
2386,0.0684261989
2387,0.0879765415
2388,0.0782013654
2389,0.0586510229
2390,0.0586510229
2391,0.0782013654
2392,0.0684261989
2393,0.0586510229
2394,0.0586510229
2395,0.0586510229
2396,0.0488758516
2397,0.0391006832
2398,0.0391006832
2399,0.0391006832
2400,0.0488758516
2401,0.0293255119
2402,0.0293255119
2403,0.0293255119
2404,0.0293255119
2405,0.0195503416
2406,0.0195503416
2407,0.0195503416
2408,0.0195503416
2409,0.0195503416
2410,0.0195503416
2411,0.0195503416
2412,0.0195503416
2413,0.0195503416
2414,0.0097751703
2415,0.0097751703
2416,0.0195503416
2417,0.0195503416
2418,0.0195503416
2419,0.0097751703
2420,0.0097751703
2421,0.0097751703
2422,0.0097751703
2423,0.0097751703
2424,0.0097751703
2425,0.0195503416
2426,0.0293255119
2427,0.0391006832
2428,0.0879765415
2429,0.1075268864
2430,0.1955034160
2431,0.2150537729
2432,0.2737047910
2433,0.3519061565
2434,0.3812316703
2435,0.3714565038
2436,0.3616813421
2437,0.3616813421
2438,0.3421309947
2439,0.3030303001
2440,0.2932551193
2441,0.2834799575
2442,0.2932551193
2443,0.2834799575
2444,0.3030303001
2445,0.2932551193
2446,0.2737047910
2447,0.2541544437
2448,0.2737047910
2449,0.2834799575
2450,0.2737047910
2451,0.2932551193
2452,0.2737047910
2453,0.2541544437
2454,0.2150537729
2455,0.2052785873
2456,0.1759530782
2457,0.1466275596
2458,0.1368523955
2459,0.1270772218
2460,0.1270772218
2461,0.1173020482
2462,0.1075268864
2463,0.0977517032
2464,0.0879765415
2465,0.0782013654
2466,0.0782013654
2467,0.0684261989
2468,0.0684261989
2469,0.0684261989
2470,0.0684261989
2471,0.0879765415
2472,0.0684261989
2473,0.0782013654
2474,0.0782013654
2475,0.0684261989
2476,0.0684261989
2477,0.0782013654
2478,0.0684261989
2479,0.0586510229
2480,0.0488758516
2481,0.0488758516
2482,0.0391006832
2483,0.0391006832
2484,0.0293255119
2485,0.0293255119
2486,0.0293255119
2487,0.0195503416
2488,0.0195503416
2489,0.0195503416
2490,0.0195503416
2491,0.0195503416
2492,0.0195503416
2493,0.0195503416
2494,0.0195503416
2495,0.0195503416
2496,0.0195503416
2497,0.0097751703
2498,0.0097751703
2499,0.0195503416
2500,0.0195503416
2501,0.0195503416
2502,0.0195503416
2503,0.0097751703
2504,0.0097751703
2505,0.0195503416
2506,0.0195503416
2507,0.0195503416
2508,0.0195503416
2509,0.0195503416
2510,0.0195503416
2511,0.0293255119
2512,0.0293255119
2513,0.0293255119
2514,0.0684261989
2515,0.0977517032
2516,0.0977517032
2517,0.1466275596
2518,0.1661779165
2519,0.1661779165
2520,0.1759530782
2521,0.1857282543
2522,0.1955034160
2523,0.2248289346
2524,0.3030303001
2525,0.3519061565
2526,0.3519061565
2527,0.3323558330
2528,0.3421309947
2529,0.3421309947
2530,0.3812316703
2531,0.3616813421
2532,0.3519061565
2533,0.3714565038
2534,0.3812316703
2535,0.3616813421
2536,0.3812316703
2537,0.3616813421
2538,0.3323558330
2539,0.3225806236
2540,0.3030303001
2541,0.2639296054
2542,0.2443792819
2543,0.2346040964
2544,0.2248289346
2545,0.1955034160
2546,0.1857282543
2547,0.1564027309
2548,0.1368523955
2549,0.1173020482
2550,0.1270772218
2551,0.1173020482
2552,0.0977517032
2553,0.0977517032
2554,0.1075268864
2555,0.0879765415
2556,0.0879765415
2557,0.0782013654
2558,0.0879765415
2559,0.0879765415
2560,0.0782013654
2561,0.0684261989
2562,0.0586510229
2563,0.0586510229
2564,0.0684261989
2565,0.0586510229
2566,0.0488758516
2567,0.0488758516
2568,0.0391006832
2569,0.0488758516
2570,0.0488758516
2571,0.0488758516
2572,0.0391006832
2573,0.0391006832
2574,0.0391006832
2575,0.0293255119
2576,0.0293255119
2577,0.0293255119
2578,0.0293255119
2579,0.0195503416
2580,0.0195503416
2581,0.0293255119
2582,0.0293255119
2583,0.0293255119
2584,0.0195503416
2585,0.0195503416
2586,0.0195503416
2587,0.0195503416
2588,0.0195503416
2589,0.0195503416
2590,0.0195503416
2591,0.0195503416
2592,0.0195503416
2593,0.0195503416
2594,0.0195503416
2595,0.0195503416
2596,0.0097751703
2597,0.0097751703
2598,0.0097751703
2599,0.0097751703
2600,0.0097751703
2601,0.0195503416
2602,0.0195503416
2603,0.0195503416
2604,0.0195503416
2605,0.0195503416
2606,0.0195503416
2607,0.0195503416
2608,0.0195503416
2609,0.0195503416
2610,0.0391006832
2611,0.0879765415
2612,0.1075268864
2613,0.1564027309
2614,0.1564027309
2615,0.1857282543
2616,0.1955034160
2617,0.2052785873
2618,0.1955034160
2619,0.1955034160
2620,0.1857282543
2621,0.1857282543
2622,0.2248289346
2623,0.2248289346
2624,0.2443792819
2625,0.2443792819
2626,0.2541544437
2627,0.2639296054
2628,0.2639296054
2629,0.2834799575
2630,0.2639296054
2631,0.2639296054
2632,0.3128054618
2633,0.3225806236
2634,0.3519061565
2635,0.3323558330
2636,0.3323558330
2637,0.3225806236
2638,0.3128054618
2639,0.3030303001
2640,0.2932551193
2641,0.2834799575
2642,0.2541544437
2643,0.2443792819
2644,0.2150537729
2645,0.1955034160
2646,0.1759530782
2647,0.1466275596
2648,0.1270772218
2649,0.1173020482
2650,0.0977517032
2651,0.0879765415
2652,0.0977517032
2653,0.0782013654
2654,0.0782013654
2655,0.0879765415
2656,0.0879765415
2657,0.0782013654
2658,0.0782013654
2659,0.0879765415
2660,0.0782013654
2661,0.0782013654
2662,0.0782013654
2663,0.0782013654
2664,0.0684261989
2665,0.0684261989
2666,0.0684261989
2667,0.0782013654
2668,0.0684261989
2669,0.0684261989
2670,0.0586510229
2671,0.0586510229
2672,0.0586510229
2673,0.0488758516
2674,0.0488758516
2675,0.0391006832
2676,0.0391006832
2677,0.0293255119
2678,0.0293255119
2679,0.0293255119
2680,0.0293255119
2681,0.0195503416
2682,0.0195503416
2683,0.0195503416
2684,0.0195503416
2685,0.0195503416
2686,0.0195503416
2687,0.0195503416
2688,0.0195503416
2689,0.0195503416
2690,0.0195503416
2691,0.0195503416
2692,0.0195503416
2693,0.0195503416
2694,0.0195503416
2695,0.0195503416
2696,0.0195503416
2697,0.0097751703
2698,0.0097751703
2699,0.0097751703
2700,0.0195503416
2701,0.0097751703
2702,0.0097751703
2703,0.0097751703
2704,0.0195503416
2705,0.0195503416
2706,0.0195503416
2707,0.0488758516
2708,0.0586510229
2709,0.0977517032
2710,0.1075268864
2711,0.1466275596
2712,0.1759530782
2713,0.1955034160
2714,0.2052785873
2715,0.2150537729
2716,0.2248289346
2717,0.2052785873
2718,0.2248289346
2719,0.2443792819
2720,0.2639296054
2721,0.2639296054
2722,0.2737047910
2723,0.2834799575
2724,0.2932551193
2725,0.2834799575
2726,0.2639296054
2727,0.2737047910
2728,0.2834799575
2729,0.3225806236
2730,0.3030303001
2731,0.2932551193
2732,0.2737047910
2733,0.2443792819
2734,0.2346040964
2735,0.1955034160
2736,0.1857282543
2737,0.1564027309
2738,0.1466275596
2739,0.1270772218
2740,0.1173020482
2741,0.1075268864
2742,0.0977517032
2743,0.0977517032
2744,0.0879765415
2745,0.0879765415
2746,0.0879765415
2747,0.1075268864
2748,0.0879765415
2749,0.0879765415
2750,0.0782013654
2751,0.0684261989
2752,0.0586510229
2753,0.0586510229
2754,0.0782013654
2755,0.0684261989
2756,0.0684261989
2757,0.0586510229
2758,0.0684261989
2759,0.0684261989
2760,0.0586510229
2761,0.0684261989
2762,0.0586510229
2763,0.0586510229
2764,0.0488758516
2765,0.0488758516
2766,0.0488758516
2767,0.0391006832
2768,0.0488758516
2769,0.0391006832
2770,0.0391006832
2771,0.0391006832
2772,0.0391006832
2773,0.0293255119
2774,0.0293255119
2775,0.0293255119
2776,0.0195503416
2777,0.0195503416
2778,0.0195503416
2779,0.0195503416
2780,0.0195503416
2781,0.0195503416
2782,0.0195503416
2783,0.0097751703
2784,0.0097751703
2785,0.0097751703
2786,0.0097751703
2787,0.0097751703
2788,0.0097751703
2789,0.0097751703
2790,0.0097751703
2791,0.0097751703
2792,0.0097751703
2793,0.0097751703
2794,0.0097751703
2795,0.0097751703
2796,0.0097751703
2797,0.0097751703
2798,0.0097751703
2799,0.0097751703
2800,0.0097751703
2801,0.0195503416
2802,0.0195503416
2803,0.0195503416
2804,0.0293255119
2805,0.0391006832
2806,0.0488758516
2807,0.0684261989
2808,0.0782013654
2809,0.1173020482
2810,0.1368523955
2811,0.1466275596
2812,0.1564027309
2813,0.1661779165
2814,0.2248289346
2815,0.2248289346
2816,0.2150537729
2817,0.2248289346
2818,0.2639296054
2819,0.3128054618
2820,0.3128054618
2821,0.2737047910
2822,0.2932551193
2823,0.2932551193
2824,0.2737047910
2825,0.2639296054
2826,0.2834799575
2827,0.2737047910
2828,0.2443792819
2829,0.2248289346
2830,0.2248289346
2831,0.2052785873
2832,0.2052785873
2833,0.2150537729
2834,0.1955034160
2835,0.2052785873
2836,0.1857282543
2837,0.1564027309
2838,0.1466275596
2839,0.1270772218
2840,0.0977517032
2841,0.0977517032
2842,0.0879765415
2843,0.0879765415
2844,0.0782013654
2845,0.0684261989
2846,0.0879765415
2847,0.0782013654
2848,0.0586510229
2849,0.0684261989
2850,0.0684261989
2851,0.0586510229
2852,0.0586510229
2853,0.0488758516
2854,0.0488758516
2855,0.0586510229
2856,0.0586510229
2857,0.0586510229
2858,0.0586510229
2859,0.0488758516
2860,0.0488758516
2861,0.0391006832
2862,0.0488758516
2863,0.0488758516
2864,0.0391006832
2865,0.0391006832
2866,0.0293255119
2867,0.0293255119
2868,0.0293255119
2869,0.0293255119
2870,0.0293255119
2871,0.0293255119
2872,0.0293255119
2873,0.0293255119
2874,0.0195503416
2875,0.0293255119
2876,0.0195503416
2877,0.0195503416
2878,0.0195503416
2879,0.0097751703
2880,0.0195503416
2881,0.0195503416
2882,0.0195503416
2883,0.0195503416
2884,0.0097751703
2885,0.0097751703
2886,0.0097751703
2887,0.0097751703
2888,0.0097751703
2889,0.0097751703
2890,0.0195503416
2891,0.0097751703
2892,0.0097751703
2893,0.0195503416
2894,0.0195503416
2895,0.0195503416
2896,0.0293255119
2897,0.0391006832
2898,0.0684261989
2899,0.0977517032
2900,0.1173020482
2901,0.1368523955
2902,0.1466275596
2903,0.1759530782
2904,0.1955034160
2905,0.1759530782
2906,0.1759530782
2907,0.1661779165
2908,0.1759530782
2909,0.1857282543
2910,0.1759530782
2911,0.1857282543
2912,0.2150537729
2913,0.2248289346
2914,0.2834799575
2915,0.3030303001
2916,0.3030303001
2917,0.3030303001
2918,0.2834799575
2919,0.3030303001
2920,0.2932551193
2921,0.2834799575
2922,0.2346040964
2923,0.2248289346
2924,0.2346040964
2925,0.2052785873
2926,0.1759530782
2927,0.1759530782
2928,0.1466275596
2929,0.1270772218
2930,0.1368523955
2931,0.1270772218
2932,0.1075268864
2933,0.0977517032
2934,0.0977517032
2935,0.0782013654
2936,0.0684261989
2937,0.0586510229
2938,0.0586510229
2939,0.0488758516
2940,0.0488758516
2941,0.0488758516
2942,0.0586510229
2943,0.0586510229
2944,0.0684261989
2945,0.0684261989
2946,0.0782013654
2947,0.0782013654
2948,0.0782013654
2949,0.0782013654
2950,0.0782013654
2951,0.0782013654
2952,0.0782013654
2953,0.0782013654
2954,0.0684261989
2955,0.0684261989
2956,0.0684261989
2957,0.0684261989
2958,0.0586510229
2959,0.0488758516
2960,0.0488758516
2961,0.0586510229
2962,0.0586510229
2963,0.0488758516
2964,0.0488758516
2965,0.0391006832
2966,0.0391006832
2967,0.0391006832
2968,0.0391006832
2969,0.0391006832
2970,0.0293255119
2971,0.0293255119
2972,0.0391006832
2973,0.0391006832
2974,0.0488758516
2975,0.0488758516
2976,0.0391006832
2977,0.0391006832
2978,0.0391006832
2979,0.0293255119
2980,0.0195503416
2981,0.0293255119
2982,0.0293255119
2983,0.0293255119
2984,0.0293255119
2985,0.0195503416
2986,0.0195503416
2987,0.0097751703
2988,0.0195503416
2989,0.0195503416
2990,0.0195503416
2991,0.0293255119
2992,0.0391006832
2993,0.0488758516
2994,0.0488758516
2995,0.0488758516
2996,0.0782013654
2997,0.1270772218
2998,0.1270772218
2999,0.1466275596
3000,0.1955034160
3001,0.3225806236
3002,0.2639296054
3003,0.2052785873
3004,0.1564027309
3005,0.1270772218
3006,0.0977517032
3007,0.0782013654
3008,0.0586510229
3009,0.0488758516
3010,0.0391006832
3011,0.0293255119
3012,0.0195503416
3013,0.0195503416
3014,0.0097751703
3015,0.0000000000
3016,0.0097751703
3017,0.0000000000
3018,0.0000000000
3019,0.0000000000
3020,0.0000000000
3021,0.0000000000
3022,0.0000000000
3023,0.0000000000
3024,0.0000000000
3025,0.0000000000
3026,0.0000000000
3027,0.0000000000
3028,0.0000000000
3029,0.0000000000
3030,0.0000000000
3031,0.0000000000
3032,0.0000000000
3033,0.0000000000
3034,0.0000000000
3035,0.0000000000
3036,0.0000000000
3037,0.0000000000
3038,0.0000000000
3039,0.0000000000
3040,0.0000000000
3041,0.0000000000
3042,0.0000000000
3043,0.0000000000
3044,0.0000000000
3045,0.0000000000
3046,0.0000000000
3047,0.0000000000
3048,0.0000000000
3049,0.0000000000
3050,0.0000000000
3051,0.0000000000
3052,0.0000000000
3053,0.0000000000
3054,0.0000000000
3055,0.0000000000
3056,0.0000000000
3057,0.0000000000
3058,0.0000000000
3059,0.0000000000
3060,0.0000000000
3061,0.0000000000
3062,0.0000000000
3063,0.0000000000
3064,0.0000000000
3065,0.0000000000
3066,0.0000000000
3067,0.0000000000
3068,0.0000000000
3069,0.0000000000
3070,0.0000000000
3071,0.0000000000
3072,0.0000000000
3073,0.0000000000
3074,0.0000000000
3075,0.0000000000
3076,0.0000000000
3077,0.0000000000
3078,0.0000000000
3079,0.0000000000
3080,0.0000000000
3081,0.0000000000
3082,0.0000000000
3083,0.0000000000
3084,0.0000000000
3085,0.0000000000
3086,0.0000000000
3087,0.0000000000
3088,0.0000000000
3089,0.0000000000
3090,0.0000000000
3091,0.0000000000
3092,0.0000000000
3093,0.0000000000
3094,0.0000000000
3095,0.0000000000
3096,0.0000000000
3097,0.0000000000
3098,0.0000000000
3099,0.0000000000
3100,0.0000000000
3101,0.0000000000
3102,0.0000000000
3103,0.0000000000
3104,0.0000000000
3105,0.0000000000
3106,0.0000000000
3107,0.0000000000
3108,0.0000000000
3109,0.0000000000
3110,0.0000000000
3111,0.0000000000
3112,0.0000000000
3113,0.0000000000
3114,0.0000000000
3115,0.0000000000
3116,0.0000000000
3117,0.0000000000
3118,0.0000000000
3119,0.0000000000
3120,0.0000000000
3121,0.0000000000
3122,0.0000000000
3123,0.0000000000
3124,0.0000000000
3125,0.0000000000
3126,0.0000000000
3127,0.0000000000
3128,0.0000000000
3129,0.0000000000
3130,0.0000000000
3131,0.0000000000
3132,0.0000000000
3133,0.0000000000
3134,0.0000000000
3135,0.0000000000
3136,0.0000000000
3137,0.0000000000
3138,0.0000000000
3139,0.0000000000
3140,0.0000000000
3141,0.0000000000
3142,0.0000000000
3143,0.0000000000
3144,0.0000000000
3145,0.0000000000
3146,0.0000000000
3147,0.0000000000
3148,0.0000000000
3149,0.0000000000
3150,0.0000000000
3151,0.0000000000
3152,0.0000000000
3153,0.0000000000
3154,0.0000000000
3155,0.0000000000
3156,0.0000000000
3157,0.0000000000
3158,0.0000000000
3159,0.0000000000
3160,0.0000000000
3161,0.0000000000
3162,0.0000000000
3163,0.0000000000
3164,0.0000000000
3165,0.0000000000
3166,0.0000000000
3167,0.0000000000
3168,0.0000000000
3169,0.0000000000
3170,0.0000000000
3171,0.0000000000
3172,0.0000000000
3173,0.0000000000
3174,0.0000000000
3175,0.0000000000
3176,0.0000000000
3177,0.0000000000
3178,0.0000000000
3179,0.0000000000
3180,0.0000000000
3181,0.0000000000
3182,0.0000000000
3183,0.0000000000
3184,0.0000000000
3185,0.0000000000
3186,0.0000000000
3187,0.0000000000
3188,0.0000000000
3189,0.0000000000
3190,0.0000000000
3191,0.0000000000
3192,0.0000000000
3193,0.0000000000
3194,0.0000000000
3195,0.0000000000
3196,0.0000000000
3197,0.0000000000
3198,0.0000000000
3199,0.0000000000
3200,0.0000000000
3201,0.0000000000
3202,0.0000000000
3203,0.0000000000
3204,0.0000000000
3205,0.0000000000
3206,0.0000000000
3207,0.0000000000
3208,0.0000000000
3209,0.0000000000
3210,0.0000000000
3211,0.0000000000
3212,0.0000000000
3213,0.0000000000
3214,0.0000000000
3215,0.0000000000
3216,0.0000000000
3217,0.0000000000
3218,0.0000000000
3219,0.0000000000
3220,0.0000000000
3221,0.0000000000
3222,0.0000000000
3223,0.0000000000
3224,0.0000000000
3225,0.0000000000
3226,0.0000000000
3227,0.0000000000
3228,0.0000000000
3229,0.0000000000
3230,0.0000000000
3231,0.0000000000
3232,0.0000000000
3233,0.0000000000
3234,0.0000000000
3235,0.0000000000
3236,0.0000000000
3237,0.0000000000
3238,0.0000000000
3239,0.0000000000
3240,0.0000000000
3241,0.0000000000
3242,0.0000000000
3243,0.0000000000
3244,0.0000000000
3245,0.0000000000
3246,0.0000000000
3247,0.0000000000
3248,0.0000000000
3249,0.0000000000
3250,0.0000000000
3251,0.0000000000
3252,0.0000000000
3253,0.0000000000
3254,0.0000000000
3255,0.0000000000
3256,0.0000000000
3257,0.0000000000
3258,0.0000000000
3259,0.0000000000
3260,0.0000000000
3261,0.0000000000
3262,0.0000000000
3263,0.0000000000
3264,0.0000000000
3265,0.0000000000
3266,0.0000000000
3267,0.0000000000
3268,0.0000000000
3269,0.0000000000
3270,0.0000000000
3271,0.0000000000
3272,0.0000000000
3273,0.0000000000
3274,0.0000000000
3275,0.0000000000
3276,0.0000000000
3277,0.0000000000
3278,0.0000000000
3279,0.0000000000
3280,0.0000000000
3281,0.0000000000
3282,0.0000000000
3283,0.0000000000
3284,0.0000000000
3285,0.0000000000
3286,0.0000000000
3287,0.0000000000
3288,0.0000000000
3289,0.0000000000
3290,0.0000000000
3291,0.0000000000
3292,0.0000000000
3293,0.0000000000
3294,0.0000000000
3295,0.0000000000
3296,0.0000000000
3297,0.0000000000
3298,0.0000000000
3299,0.0000000000
3300,0.0000000000
3301,0.0000000000
3302,0.0000000000
3303,0.0000000000
3304,0.0000000000
3305,0.0000000000
3306,0.0000000000
3307,0.0000000000
3308,0.0000000000
3309,0.0000000000
3310,0.0000000000
3311,0.0000000000
3312,0.0000000000
3313,0.0000000000
3314,0.0000000000
3315,0.0000000000
3316,0.0000000000
3317,0.0000000000
3318,0.0000000000
3319,0.0000000000
3320,0.0000000000
3321,0.0000000000
3322,0.0000000000
3323,0.0000000000
3324,0.0000000000
3325,0.0000000000
3326,0.0000000000
3327,0.0000000000
3328,0.0000000000
3329,0.0000000000
3330,0.0000000000
3331,0.0000000000
3332,0.0000000000
3333,0.0000000000
3334,0.0000000000
3335,0.0000000000
3336,0.0000000000
3337,0.0000000000
3338,0.0000000000
3339,0.0000000000
3340,0.0000000000
3341,0.0000000000
3342,0.0000000000
3343,0.0000000000
3344,0.0000000000
3345,0.0000000000
3346,0.0000000000
3347,0.0000000000
3348,0.0000000000
3349,0.0000000000
3350,0.0000000000
3351,0.0000000000
3352,0.0000000000
3353,0.0000000000
3354,0.0000000000
3355,0.0000000000
3356,0.0000000000
3357,0.0000000000
3358,0.0000000000
3359,0.0000000000
3360,0.0000000000
3361,0.0000000000
3362,0.0000000000
3363,0.0000000000
3364,0.0000000000
3365,0.0000000000
3366,0.0000000000
3367,0.0000000000
3368,0.0000000000
3369,0.0000000000
3370,0.0000000000
3371,0.0000000000
3372,0.0000000000
3373,0.0000000000
3374,0.0000000000
3375,0.0000000000
3376,0.0000000000
3377,0.0000000000
3378,0.0000000000
3379,0.0000000000
3380,0.0000000000
3381,0.0000000000
3382,0.0000000000
3383,0.0000000000
3384,0.0000000000
3385,0.0000000000
3386,0.0000000000
3387,0.0000000000
3388,0.0000000000
3389,0.0000000000
3390,0.0000000000
3391,0.0000000000
3392,0.0000000000
3393,0.0000000000
3394,0.0000000000
3395,0.0000000000
3396,0.0000000000
3397,0.0000000000
3398,0.0000000000
3399,0.0000000000
3400,0.0000000000
3401,0.0000000000
3402,0.0000000000
3403,0.0000000000
3404,0.0000000000
3405,0.0000000000
3406,0.0000000000
3407,0.0000000000
3408,0.0000000000
3409,0.0000000000
3410,0.0000000000
3411,0.0000000000
3412,0.0000000000
3413,0.0000000000
3414,0.0000000000
3415,0.0000000000
3416,0.0000000000
3417,0.0000000000
3418,0.0000000000
3419,0.0000000000
3420,0.0000000000
3421,0.0000000000
3422,0.0000000000
3423,0.0000000000
3424,0.0000000000
3425,0.0000000000
3426,0.0000000000
3427,0.0000000000
3428,0.0000000000
3429,0.0000000000
3430,0.0000000000
3431,0.0000000000
3432,0.0000000000
3433,0.0000000000
3434,0.0000000000
3435,0.0000000000
3436,0.0000000000
3437,0.0000000000
3438,0.0000000000
3439,0.0000000000
3440,0.0000000000
3441,0.0000000000
3442,0.0000000000
3443,0.0000000000
3444,0.0000000000
3445,0.0000000000
3446,0.0000000000
3447,0.0000000000
3448,0.0000000000
3449,0.0000000000
3450,0.0000000000
3451,0.0000000000
3452,0.0000000000
3453,0.0000000000
3454,0.0000000000
3455,0.0000000000
3456,0.0000000000
3457,0.0000000000
3458,0.0000000000
3459,0.0000000000
3460,0.0000000000
3461,0.0000000000
3462,0.0000000000
3463,0.0000000000
3464,0.0000000000
3465,0.0000000000
3466,0.0000000000
3467,0.0000000000
3468,0.0000000000
3469,0.0000000000
3470,0.0000000000
3471,0.0000000000
3472,0.0000000000
3473,0.0000000000
3474,0.0000000000
3475,0.0000000000
3476,0.0000000000
3477,0.0000000000
3478,0.0000000000
3479,0.0000000000
3480,0.0000000000
3481,0.0000000000
3482,0.0000000000
3483,0.0000000000
3484,0.0000000000
3485,0.0000000000
3486,0.0000000000
3487,0.0000000000
3488,0.0000000000
3489,0.0000000000
3490,0.0000000000
3491,0.0000000000
3492,0.0000000000
3493,0.0000000000
3494,0.0000000000
3495,0.0000000000
3496,0.0000000000
3497,0.0000000000
3498,0.0000000000
3499,0.0000000000
3500,0.0000000000
3501,0.0000000000
3502,0.0000000000
3503,0.0000000000
3504,0.0000000000
3505,0.0000000000
3506,0.0000000000
3507,0.0000000000
3508,0.0000000000
3509,0.0000000000
3510,0.0000000000
3511,0.0000000000
3512,0.0000000000
3513,0.0000000000
3514,0.0000000000
3515,0.0000000000
3516,0.0000000000
3517,0.0000000000
3518,0.0000000000
3519,0.0000000000
3520,0.0000000000
3521,0.0000000000
3522,0.0000000000
3523,0.0000000000
3524,0.0000000000
3525,0.0000000000
3526,0.0000000000
3527,0.0000000000
3528,0.0000000000
3529,0.0000000000
3530,0.0000000000
3531,0.0000000000
3532,0.0000000000
3533,0.0000000000
3534,0.0000000000
3535,0.0000000000
3536,0.0000000000
3537,0.0000000000
3538,0.0000000000
3539,0.0000000000
3540,0.0000000000
3541,0.0000000000
3542,0.0000000000
3543,0.0000000000
3544,0.0000000000
3545,0.0000000000
3546,0.0000000000
3547,0.0000000000
3548,0.0000000000
3549,0.0000000000
3550,0.0000000000
3551,0.0000000000
3552,0.0000000000
3553,0.0000000000
3554,0.0000000000
3555,0.0000000000
3556,0.0000000000
3557,0.0000000000
3558,0.0000000000
3559,0.0000000000
3560,0.0000000000
3561,0.0000000000
3562,0.0000000000
3563,0.0000000000
3564,0.0000000000
3565,0.0000000000
3566,0.0000000000
3567,0.0000000000
3568,0.0000000000
3569,0.0000000000
3570,0.0000000000
3571,0.0000000000
3572,0.0000000000
3573,0.0000000000
3574,0.0000000000
3575,0.0000000000
3576,0.0000000000
3577,0.0000000000
3578,0.0000000000
3579,0.0000000000
3580,0.0000000000
3581,0.0000000000
3582,0.0000000000
3583,0.0000000000
3584,0.0000000000
3585,0.0000000000
3586,0.0000000000
3587,0.0000000000
3588,0.0000000000
3589,0.0000000000
3590,0.0000000000
3591,0.0000000000
3592,0.0000000000
3593,0.0000000000
3594,0.0000000000
3595,0.0000000000
3596,0.0000000000
3597,0.0000000000
3598,0.0000000000
3599,0.0000000000
3600,0.0000000000
3601,0.0000000000
3602,0.0000000000
3603,0.0000000000
3604,0.0000000000
3605,0.0000000000
3606,0.0000000000
3607,0.0000000000
3608,0.0000000000
3609,0.0000000000
3610,0.0000000000
3611,0.0000000000
3612,0.0000000000
3613,0.0000000000
3614,0.0000000000
3615,0.0000000000
3616,0.0000000000
3617,0.0000000000
3618,0.0000000000
3619,0.0000000000
3620,0.0000000000
3621,0.0000000000
3622,0.0000000000
3623,0.0000000000
3624,0.0000000000
3625,0.0000000000
3626,0.0000000000
3627,0.0000000000
3628,0.0000000000
3629,0.0000000000
3630,0.0000000000
3631,0.0000000000
3632,0.0000000000
3633,0.0000000000
3634,0.0000000000
3635,0.0000000000
3636,0.0000000000
3637,0.0000000000
3638,0.0000000000
3639,0.0000000000
3640,0.0000000000
3641,0.0000000000
3642,0.0000000000
3643,0.0000000000
3644,0.0000000000
3645,0.0000000000
3646,0.0000000000
3647,0.0000000000
3648,0.0000000000
3649,0.0000000000
3650,0.0000000000
3651,0.0000000000
3652,0.0000000000
3653,0.0000000000
3654,0.0000000000
3655,0.0000000000
3656,0.0000000000
3657,0.0000000000
3658,0.0000000000
3659,0.0000000000
3660,0.0000000000
3661,0.0000000000
3662,0.0000000000
3663,0.0000000000
3664,0.0000000000
3665,0.0000000000
3666,0.0000000000
3667,0.0000000000
3668,0.0000000000
3669,0.0000000000
3670,0.0000000000
3671,0.0000000000
3672,0.0000000000
3673,0.0000000000
3674,0.0000000000
3675,0.0000000000
3676,0.0000000000
3677,0.0000000000
3678,0.0000000000
3679,0.0000000000
3680,0.0000000000
3681,0.0000000000
3682,0.0000000000
3683,0.0000000000
3684,0.0000000000
3685,0.0000000000
3686,0.0000000000
3687,0.0000000000
3688,0.0000000000
3689,0.0000000000
3690,0.0000000000
3691,0.0000000000
3692,0.0000000000
3693,0.0000000000
3694,0.0000000000
3695,0.0000000000
3696,0.0000000000
3697,0.0000000000
3698,0.0000000000
3699,0.0000000000
3700,0.0000000000
3701,0.0000000000
3702,0.0000000000
3703,0.0000000000
3704,0.0000000000
3705,0.0000000000
3706,0.0000000000
3707,0.0000000000
3708,0.0000000000
3709,0.0000000000
3710,0.0000000000
3711,0.0000000000
3712,0.0000000000
3713,0.0000000000
3714,0.0000000000
3715,0.0000000000
3716,0.0000000000
3717,0.0000000000
3718,0.0000000000
3719,0.0000000000
3720,0.0000000000
3721,0.0000000000
3722,0.0000000000
3723,0.0000000000
3724,0.0000000000
3725,0.0000000000
3726,0.0000000000
3727,0.0000000000
3728,0.0000000000
3729,0.0000000000
3730,0.0000000000
3731,0.0000000000
3732,0.0000000000
3733,0.0000000000
3734,0.0000000000
3735,0.0000000000
3736,0.0000000000
3737,0.0000000000
3738,0.0000000000
3739,0.0000000000
3740,0.0000000000
3741,0.0000000000
3742,0.0000000000
3743,0.0000000000
3744,0.0000000000
3745,0.0000000000
3746,0.0000000000
3747,0.0000000000
3748,0.0000000000
3749,0.0000000000
3750,0.0000000000
3751,0.0000000000
3752,0.0000000000
3753,0.0000000000
3754,0.0000000000
3755,0.0000000000
3756,0.0000000000
3757,0.0000000000
3758,0.0000000000
3759,0.0000000000
3760,0.0000000000
3761,0.0000000000
3762,0.0000000000
3763,0.0000000000
3764,0.0000000000
3765,0.0000000000
3766,0.0000000000
3767,0.0000000000
3768,0.0000000000
3769,0.0000000000
3770,0.0000000000
3771,0.0000000000
3772,0.0000000000
3773,0.0000000000
3774,0.0000000000
3775,0.0000000000
3776,0.0000000000
3777,0.0000000000
3778,0.0000000000
3779,0.0000000000
3780,0.0000000000
3781,0.0000000000
3782,0.0000000000
3783,0.0000000000
3784,0.0000000000
3785,0.0000000000
3786,0.0000000000
3787,0.0000000000
3788,0.0000000000
3789,0.0000000000
3790,0.0000000000
3791,0.0000000000
3792,0.0000000000
3793,0.0000000000
3794,0.0000000000
3795,0.0000000000
3796,0.0000000000
3797,0.0000000000
3798,0.0000000000
3799,0.0000000000
3800,0.0000000000
3801,0.0000000000
3802,0.0000000000
3803,0.0000000000
3804,0.0000000000
3805,0.0000000000
3806,0.0000000000
3807,0.0000000000
3808,0.0000000000
3809,0.0000000000
3810,0.0000000000
3811,0.0000000000
3812,0.0000000000
3813,0.0000000000
3814,0.0000000000
3815,0.0000000000
3816,0.0000000000
3817,0.0000000000
3818,0.0000000000
3819,0.0000000000
3820,0.0000000000
3821,0.0000000000
3822,0.0000000000
3823,0.0000000000
3824,0.0000000000
3825,0.0000000000
3826,0.0000000000
3827,0.0000000000
3828,0.0000000000
3829,0.0000000000
3830,0.0000000000
3831,0.0000000000
3832,0.0000000000
3833,0.0000000000
3834,0.0000000000
3835,0.0000000000
3836,0.0000000000
3837,0.0000000000
3838,0.0000000000
3839,0.0000000000
3840,0.0000000000
3841,0.0000000000
3842,0.0000000000
3843,0.0000000000
3844,0.0000000000
3845,0.0000000000
3846,0.0000000000
3847,0.0000000000
3848,0.0000000000
3849,0.0000000000
3850,0.0000000000
3851,0.0000000000
3852,0.0000000000
3853,0.0000000000
3854,0.0000000000
3855,0.0000000000
3856,0.0000000000
3857,0.0000000000
3858,0.0000000000
3859,0.0000000000
3860,0.0000000000
3861,0.0000000000
3862,0.0000000000
3863,0.0000000000
3864,0.0000000000
3865,0.0000000000
3866,0.0000000000
3867,0.0000000000
3868,0.0000000000
3869,0.0000000000
3870,0.0000000000
3871,0.0000000000
3872,0.0000000000
3873,0.0000000000
3874,0.0000000000
3875,0.0000000000
3876,0.0000000000
3877,0.0000000000
3878,0.0000000000
3879,0.0000000000
3880,0.0000000000
3881,0.0000000000
3882,0.0000000000
3883,0.0000000000
3884,0.0000000000
3885,0.0000000000
3886,0.0000000000
3887,0.0000000000
3888,0.0000000000
3889,0.0000000000
3890,0.0000000000
3891,0.0000000000
3892,0.0000000000
3893,0.0000000000
3894,0.0000000000
3895,0.0000000000
3896,0.0000000000
3897,0.0000000000
3898,0.0000000000
3899,0.0000000000
3900,0.0000000000
3901,0.0000000000
3902,0.0000000000
3903,0.0000000000
3904,0.0000000000
3905,0.0000000000
3906,0.0000000000
3907,0.0000000000
3908,0.0000000000
3909,0.0000000000
3910,0.0000000000
3911,0.0000000000
3912,0.0000000000
3913,0.0000000000
3914,0.0000000000
3915,0.0000000000
3916,0.0000000000
3917,0.0000000000
3918,0.0000000000
3919,0.0000000000
3920,0.0000000000
3921,0.0000000000
3922,0.0000000000
3923,0.0000000000
3924,0.0000000000
3925,0.0000000000
3926,0.0000000000
3927,0.0000000000
3928,0.0000000000
3929,0.0000000000
3930,0.0000000000
3931,0.0000000000
3932,0.0000000000
3933,0.0000000000
3934,0.0000000000
3935,0.0000000000
3936,0.0000000000
3937,0.0000000000
3938,0.0000000000
3939,0.0000000000
3940,0.0000000000
3941,0.0000000000
3942,0.0000000000
3943,0.0000000000
3944,0.0000000000
3945,0.0000000000
3946,0.0000000000
3947,0.0000000000
3948,0.0000000000
3949,0.0000000000
3950,0.0000000000
3951,0.0000000000
3952,0.0000000000
3953,0.0000000000
3954,0.0000000000
3955,0.0000000000
3956,0.0000000000
3957,0.0000000000
3958,0.0000000000
3959,0.0000000000
3960,0.0000000000
3961,0.0000000000
3962,0.0000000000
3963,0.0000000000
3964,0.0000000000
3965,0.0000000000
3966,0.0000000000
3967,0.0000000000
3968,0.0000000000
3969,0.0000000000
3970,0.0000000000
3971,0.0000000000
3972,0.0000000000
3973,0.0000000000
3974,0.0000000000
3975,0.0000000000
3976,0.0000000000
3977,0.0000000000
3978,0.0000000000
3979,0.0000000000
3980,0.0000000000
3981,0.0000000000
3982,0.0000000000
3983,0.0000000000
3984,0.0000000000
3985,0.0000000000
3986,0.0000000000
3987,0.0000000000
3988,0.0000000000
3989,0.0000000000
3990,0.0000000000
3991,0.0000000000
3992,0.0000000000
3993,0.0000000000
3994,0.0000000000
3995,0.0000000000
3996,0.0000000000
3997,0.0000000000
3998,0.0000000000
3999,0.0000000000
4000,0.0000000000
4001,0.4496578693
4002,0.3616813421
4003,0.2932551193
4004,0.2443792819
4005,0.2052785873
4006,0.1759530782
4007,0.1466275596
4008,0.1173020482
4009,0.0977517032
4010,0.0782013654
4011,0.0684261989
4012,0.0684261989
4013,0.0586510229
4014,0.0488758516
4015,0.0391006832
4016,0.0391006832
4017,0.0391006832
4018,0.0293255119
4019,0.0195503416
4020,0.0195503416
4021,0.0195503416
4022,0.0195503416
4023,0.0097751703
4024,0.0195503416
4025,0.0195503416
4026,0.0195503416
4027,0.0195503416
4028,0.0097751703
4029,0.0097751703
4030,0.0097751703
4031,0.0097751703
4032,0.0195503416
4033,0.0097751703
4034,0.0097751703
4035,0.0097751703
4036,0.0097751703
4037,0.0097751703
4038,0.0097751703
4039,0.0097751703
4040,0.0097751703
4041,0.0097751703
4042,0.0195503416
4043,0.0097751703
4044,0.0195503416
4045,0.0195503416
4046,0.0097751703
4047,0.0097751703
4048,0.0097751703
4049,0.0097751703
4050,0.0097751703
4051,0.0097751703
4052,0.0097751703
4053,0.0097751703
4054,0.0195503416
4055,0.0195503416
4056,0.0195503416
4057,0.0195503416
4058,0.0195503416
4059,0.0097751703
4060,0.0097751703
4061,0.0097751703
4062,0.0195503416
4063,0.0293255119
4064,0.0195503416
4065,0.0195503416
4066,0.0293255119
4067,0.0293255119
4068,0.0293255119
4069,0.0293255119
4070,0.0293255119
4071,0.0293255119
4072,0.0293255119
4073,0.0293255119
4074,0.0293255119
4075,0.0391006832
4076,0.0488758516
4077,0.0586510229
4078,0.0684261989
4079,0.0684261989
4080,0.0684261989
4081,0.0977517032
4082,0.0977517032
4083,0.0977517032
4084,0.0977517032
4085,0.1075268864
4086,0.1075268864
4087,0.1075268864
4088,0.1270772218
4089,0.1173020482
4090,0.1270772218
4091,0.1173020482
4092,0.0977517032
4093,0.0879765415
4094,0.0879765415
4095,0.0782013654
4096,0.0684261989
4097,0.0879765415
4098,0.0782013654
4099,0.0684261989
4100,0.0586510229
4101,0.0586510229
4102,0.0391006832
4103,0.0391006832
4104,0.0391006832
4105,0.0488758516
4106,0.0391006832
4107,0.0293255119
4108,0.0293255119
4109,0.0391006832
4110,0.0391006832
4111,0.0391006832
4112,0.0293255119
4113,0.0293255119
4114,0.0488758516
4115,0.0391006832
4116,0.0391006832
4117,0.0293255119
4118,0.0391006832
4119,0.0293255119
4120,0.0293255119
4121,0.0195503416
4122,0.0293255119
4123,0.0195503416
4124,0.0195503416
4125,0.0195503416
4126,0.0195503416
4127,0.0293255119
4128,0.0293255119
4129,0.0195503416
4130,0.0195503416
4131,0.0097751703
4132,0.0195503416
4133,0.0195503416
4134,0.0097751703
4135,0.0097751703
4136,0.0097751703
4137,0.0097751703
4138,0.0097751703
4139,0.0097751703
4140,0.0097751703
4141,0.0097751703
4142,0.0097751703
4143,0.0097751703
4144,0.0097751703
4145,0.0097751703
4146,0.0097751703
4147,0.0293255119
4148,0.0195503416
4149,0.0195503416
4150,0.0195503416
4151,0.0195503416
4152,0.0195503416
4153,0.0293255119
4154,0.0293255119
4155,0.0195503416
4156,0.0195503416
4157,0.0097751703
4158,0.0097751703
4159,0.0293255119
4160,0.0293255119
4161,0.0293255119
4162,0.0195503416
4163,0.0195503416
4164,0.0195503416
4165,0.0293255119
4166,0.0391006832
4167,0.0391006832
4168,0.0488758516
4169,0.0391006832
4170,0.0391006832
4171,0.0586510229
4172,0.0684261989
4173,0.0684261989
4174,0.0684261989
4175,0.0782013654
4176,0.0586510229
4177,0.0586510229
4178,0.0782013654
4179,0.0684261989
4180,0.0879765415
4181,0.0879765415
4182,0.0782013654
4183,0.0879765415
4184,0.0879765415
4185,0.0879765415
4186,0.0977517032
4187,0.0977517032
4188,0.0977517032
4189,0.0782013654
4190,0.0879765415
4191,0.0684261989
4192,0.0684261989
4193,0.0684261989
4194,0.0684261989
4195,0.0684261989
4196,0.0586510229
4197,0.0391006832
4198,0.0391006832
4199,0.0488758516
4200,0.0488758516
4201,0.0488758516
4202,0.0488758516
4203,0.0488758516
4204,0.0586510229
4205,0.0586510229
4206,0.0488758516
4207,0.0391006832
4208,0.0391006832
4209,0.0293255119
4210,0.0293255119
4211,0.0195503416
4212,0.0195503416
4213,0.0195503416
4214,0.0195503416
4215,0.0195503416
4216,0.0195503416
4217,0.0195503416
4218,0.0195503416
4219,0.0195503416
4220,0.0097751703
4221,0.0097751703
4222,0.0195503416
4223,0.0195503416
4224,0.0195503416
4225,0.0195503416
4226,0.0195503416
4227,0.0097751703
4228,0.0097751703
4229,0.0097751703
4230,0.0097751703
4231,0.0097751703
4232,0.0097751703
4233,0.0097751703
4234,0.0097751703
4235,0.0097751703
4236,0.0097751703
4237,0.0097751703
4238,0.0097751703
4239,0.0097751703
4240,0.0097751703
4241,0.0097751703
4242,0.0097751703
4243,0.0000000000
4244,0.0000000000
4245,0.0000000000
4246,0.0000000000
4247,0.0000000000
4248,0.0000000000
4249,0.0000000000
4250,0.0000000000
4251,0.0000000000
4252,0.0000000000
4253,0.0000000000
4254,0.0000000000
4255,0.0000000000
4256,0.0000000000
4257,0.0000000000
4258,0.0097751703
4259,0.0000000000
4260,0.0097751703
4261,0.0097751703
4262,0.0195503416
4263,0.0097751703
4264,0.0293255119
4265,0.0293255119
4266,0.0293255119
4267,0.0195503416
4268,0.0195503416
4269,0.0195503416
4270,0.0293255119
4271,0.0391006832
4272,0.0391006832
4273,0.0684261989
4274,0.0684261989
4275,0.0879765415
4276,0.0977517032
4277,0.0977517032
4278,0.0977517032
4279,0.0977517032
4280,0.0977517032
4281,0.0782013654
4282,0.0879765415
4283,0.0684261989
4284,0.0684261989
4285,0.0782013654
4286,0.0684261989
4287,0.0586510229
4288,0.0586510229
4289,0.0488758516
4290,0.0391006832
4291,0.0488758516
4292,0.0391006832
4293,0.0391006832
4294,0.0293255119
4295,0.0391006832
4296,0.0293255119
4297,0.0293255119
4298,0.0195503416
4299,0.0195503416
4300,0.0195503416
4301,0.0195503416
4302,0.0293255119
4303,0.0195503416
4304,0.0195503416
4305,0.0097751703
4306,0.0097751703
4307,0.0195503416
4308,0.0097751703
4309,0.0097751703
4310,0.0097751703
4311,0.0097751703
4312,0.0097751703
4313,0.0097751703
4314,0.0195503416
4315,0.0195503416
4316,0.0097751703
4317,0.0097751703
4318,0.0000000000
4319,0.0097751703
4320,0.0097751703
4321,0.0097751703
4322,0.0000000000
4323,0.0000000000
4324,0.0000000000
4325,0.0000000000
4326,0.0000000000
4327,0.0000000000
4328,0.0000000000
4329,0.0000000000
4330,0.0000000000
4331,0.0000000000
4332,0.0000000000
4333,0.0000000000
4334,0.0000000000
4335,0.0000000000
4336,0.0000000000
4337,0.0000000000
4338,0.0000000000
4339,0.0000000000
4340,0.0000000000
4341,0.0000000000
4342,0.0000000000
4343,0.0000000000
4344,0.0000000000
4345,0.0000000000
4346,0.0000000000
4347,0.0000000000
4348,0.0000000000
4349,0.0000000000
4350,0.0000000000
4351,0.0000000000
4352,0.0000000000
4353,0.0097751703
4354,0.0097751703
4355,0.0097751703
4356,0.0097751703
4357,0.0097751703
4358,0.0195503416
4359,0.0195503416
4360,0.0195503416
4361,0.0195503416
4362,0.0195503416
4363,0.0195503416
4364,0.0195503416
4365,0.0293255119
4366,0.0293255119
4367,0.0586510229
4368,0.0586510229
4369,0.0488758516
4370,0.0684261989
4371,0.0684261989
4372,0.0684261989
4373,0.0684261989
4374,0.0684261989
4375,0.0586510229
4376,0.0684261989
4377,0.0684261989
4378,0.0684261989
4379,0.0684261989
4380,0.0586510229
4381,0.0586510229
4382,0.0488758516
4383,0.0391006832
4384,0.0391006832
4385,0.0391006832
4386,0.0391006832
4387,0.0293255119
4388,0.0293255119
4389,0.0195503416
4390,0.0293255119
4391,0.0195503416
4392,0.0195503416
4393,0.0195503416
4394,0.0195503416
4395,0.0195503416
4396,0.0195503416
4397,0.0195503416
4398,0.0097751703
4399,0.0195503416
4400,0.0293255119
4401,0.0195503416
4402,0.0195503416
4403,0.0195503416
4404,0.0097751703
4405,0.0195503416
4406,0.0195503416
4407,0.0097751703
4408,0.0097751703
4409,0.0195503416
4410,0.0195503416
4411,0.0097751703
4412,0.0097751703
4413,0.0097751703
4414,0.0000000000
4415,0.0195503416
4416,0.0195503416
4417,0.0195503416
4418,0.0097751703
4419,0.0195503416
4420,0.0195503416
4421,0.0293255119
4422,0.0293255119
4423,0.0293255119
4424,0.0293255119
4425,0.0293255119
4426,0.0391006832
4427,0.0391006832
4428,0.0293255119
4429,0.0293255119
4430,0.0195503416
4431,0.0293255119
4432,0.0293255119
4433,0.0195503416
4434,0.0293255119
4435,0.0195503416
4436,0.0293255119
4437,0.0293255119
4438,0.0195503416
4439,0.0293255119
4440,0.0391006832
4441,0.0293255119
4442,0.0293255119
4443,0.0195503416
4444,0.0391006832
4445,0.0293255119
4446,0.0195503416
4447,0.0195503416
4448,0.0195503416
4449,0.0293255119
4450,0.0293255119
4451,0.0195503416
4452,0.0293255119
4453,0.0293255119
4454,0.0293255119
4455,0.0391006832
4456,0.0684261989
4457,0.0782013654
4458,0.0879765415
4459,0.0879765415
4460,0.0782013654
4461,0.0977517032
4462,0.1368523955
4463,0.1759530782
4464,0.1661779165
4465,0.1857282543
4466,0.1759530782
4467,0.1661779165
4468,0.1661779165
4469,0.1759530782
4470,0.1466275596
4471,0.1270772218
4472,0.1075268864
4473,0.0977517032
4474,0.0782013654
4475,0.0879765415
4476,0.0684261989
4477,0.0684261989
4478,0.0586510229
4479,0.0488758516
4480,0.0391006832
4481,0.0391006832
4482,0.0488758516
4483,0.0586510229
4484,0.0391006832
4485,0.0293255119
4486,0.0293255119
4487,0.0293255119
4488,0.0195503416
4489,0.0293255119
4490,0.0293255119
4491,0.0195503416
4492,0.0195503416
4493,0.0195503416
4494,0.0097751703
4495,0.0097751703
4496,0.0097751703
4497,0.0097751703
4498,0.0097751703
4499,0.0097751703
4500,0.0097751703
4501,0.0097751703
4502,0.0000000000
4503,0.0000000000
4504,0.0097751703
4505,0.0000000000
4506,0.0000000000
4507,0.0000000000
4508,0.0000000000
4509,0.0000000000
4510,0.0000000000
4511,0.0000000000
4512,0.0000000000
4513,0.0000000000
4514,0.0000000000
4515,0.0000000000
4516,0.0000000000
4517,0.0000000000
4518,0.0000000000
4519,0.0000000000
4520,0.0000000000
4521,0.0000000000
4522,0.0000000000
4523,0.0000000000
4524,0.0000000000
4525,0.0000000000
4526,0.0000000000
4527,0.0000000000
4528,0.0000000000
4529,0.0000000000
4530,0.0000000000
4531,0.0000000000
4532,0.0000000000
4533,0.0000000000
4534,0.0000000000
4535,0.0000000000
4536,0.0000000000
4537,0.0000000000
4538,0.0097751703
4539,0.0000000000
4540,0.0097751703
4541,0.0097751703
4542,0.0097751703
4543,0.0097751703
4544,0.0097751703
4545,0.0097751703
4546,0.0195503416
4547,0.0195503416
4548,0.0195503416
4549,0.0195503416
4550,0.0293255119
4551,0.0293255119
4552,0.0391006832
4553,0.0488758516
4554,0.0391006832
4555,0.0391006832
4556,0.0488758516
4557,0.0977517032
4558,0.0977517032
4559,0.1075268864
4560,0.0977517032
4561,0.0879765415
4562,0.0782013654
4563,0.0879765415
4564,0.0879765415
4565,0.0977517032
4566,0.0782013654
4567,0.0879765415
4568,0.0782013654
4569,0.0684261989
4570,0.0586510229
4571,0.0586510229
4572,0.0586510229
4573,0.0586510229
4574,0.0586510229
4575,0.0586510229
4576,0.0586510229
4577,0.0684261989
4578,0.0586510229
4579,0.0488758516
4580,0.0488758516
4581,0.0488758516
4582,0.0488758516
4583,0.0488758516
4584,0.0391006832
4585,0.0391006832
4586,0.0488758516
4587,0.0391006832
4588,0.0293255119
4589,0.0293255119
4590,0.0293255119
4591,0.0195503416
4592,0.0195503416
4593,0.0195503416
4594,0.0195503416
4595,0.0195503416
4596,0.0195503416
4597,0.0195503416
4598,0.0195503416
4599,0.0097751703
4600,0.0097751703
4601,0.0097751703
4602,0.0097751703
4603,0.0097751703
4604,0.0000000000
4605,0.0000000000
4606,0.0097751703
4607,0.0000000000
4608,0.0000000000
4609,0.0000000000
4610,0.0000000000
4611,0.0000000000
4612,0.0000000000
4613,0.0000000000
4614,0.0000000000
4615,0.0000000000
4616,0.0000000000
4617,0.0000000000
4618,0.0000000000
4619,0.0000000000
4620,0.0000000000
4621,0.0000000000
4622,0.0000000000
4623,0.0000000000
4624,0.0000000000
4625,0.0000000000
4626,0.0000000000
4627,0.0000000000
4628,0.0000000000
4629,0.0000000000
4630,0.0000000000
4631,0.0000000000
4632,0.0000000000
4633,0.0000000000
4634,0.0000000000
4635,0.0000000000
4636,0.0000000000
4637,0.0000000000
4638,0.0000000000
4639,0.0000000000
4640,0.0097751703
4641,0.0097751703
4642,0.0097751703
4643,0.0195503416
4644,0.0195503416
4645,0.0195503416
4646,0.0195503416
4647,0.0293255119
4648,0.0391006832
4649,0.0391006832
4650,0.0391006832
4651,0.0293255119
4652,0.0293255119
4653,0.0293255119
4654,0.0391006832
4655,0.0391006832
4656,0.0684261989
4657,0.0977517032
4658,0.1075268864
4659,0.1075268864
4660,0.0977517032
4661,0.1466275596
4662,0.1466275596
4663,0.1759530782
4664,0.1759530782
4665,0.1564027309
4666,0.1661779165
4667,0.1368523955
4668,0.1466275596
4669,0.1466275596
4670,0.1368523955
4671,0.1173020482
4672,0.1270772218
4673,0.0977517032
4674,0.0879765415
4675,0.0782013654
4676,0.0782013654
4677,0.0684261989
4678,0.0782013654
4679,0.0684261989
4680,0.0684261989
4681,0.0586510229
4682,0.0586510229
4683,0.0586510229
4684,0.0586510229
4685,0.0488758516
4686,0.0488758516
4687,0.0488758516
4688,0.0391006832
4689,0.0488758516
4690,0.0391006832
4691,0.0391006832
4692,0.0488758516
4693,0.0488758516
4694,0.0391006832
4695,0.0293255119
4696,0.0293255119
4697,0.0488758516
4698,0.0391006832
4699,0.0293255119
4700,0.0293255119
4701,0.0293255119
4702,0.0195503416
4703,0.0195503416
4704,0.0097751703
4705,0.0097751703
4706,0.0195503416
4707,0.0195503416
4708,0.0293255119
4709,0.0195503416
4710,0.0195503416
4711,0.0195503416
4712,0.0097751703
4713,0.0097751703
4714,0.0097751703
4715,0.0097751703
4716,0.0097751703
4717,0.0097751703
4718,0.0097751703
4719,0.0000000000
4720,0.0000000000
4721,0.0097751703
4722,0.0000000000
4723,0.0000000000
4724,0.0000000000
4725,0.0097751703
4726,0.0000000000
4727,0.0000000000
4728,0.0000000000
4729,0.0000000000
4730,0.0000000000
4731,0.0000000000
4732,0.0000000000
4733,0.0000000000
4734,0.0000000000
4735,0.0000000000
4736,0.0000000000
4737,0.0000000000
4738,0.0000000000
4739,0.0000000000
4740,0.0000000000
4741,0.0000000000
4742,0.0000000000
4743,0.0000000000
4744,0.0000000000
4745,0.0000000000
4746,0.0000000000
4747,0.0000000000
4748,0.0000000000
4749,0.0000000000
4750,0.0000000000
4751,0.0000000000
4752,0.0097751703
4753,0.0097751703
4754,0.0097751703
4755,0.0097751703
4756,0.0195503416
4757,0.0195503416
4758,0.0195503416
4759,0.0293255119
4760,0.0293255119
4761,0.0195503416
4762,0.0195503416
4763,0.0097751703
4764,0.0097751703
4765,0.0195503416
4766,0.0195503416
4767,0.0195503416
4768,0.0293255119
4769,0.0391006832
4770,0.0488758516
4771,0.0586510229
4772,0.0488758516
4773,0.0488758516
4774,0.0586510229
4775,0.0684261989
4776,0.0782013654
4777,0.0782013654
4778,0.0782013654
4779,0.0684261989
4780,0.0782013654
4781,0.0782013654
4782,0.0782013654
4783,0.0782013654
4784,0.0782013654
4785,0.0586510229
4786,0.0586510229
4787,0.0586510229
4788,0.0488758516
4789,0.0488758516
4790,0.0586510229
4791,0.0586510229
4792,0.0488758516
4793,0.0391006832
4794,0.0391006832
4795,0.0586510229
4796,0.0488758516
4797,0.0391006832
4798,0.0293255119
4799,0.0293255119
4800,0.0391006832
4801,0.0391006832
4802,0.0391006832
4803,0.0293255119
4804,0.0195503416
4805,0.0195503416
4806,0.0097751703
4807,0.0097751703
4808,0.0097751703
4809,0.0097751703
4810,0.0097751703
4811,0.0097751703
4812,0.0097751703
4813,0.0195503416
4814,0.0097751703
4815,0.0097751703
4816,0.0097751703
4817,0.0097751703
4818,0.0000000000
4819,0.0000000000
4820,0.0000000000
4821,0.0000000000
4822,0.0000000000
4823,0.0000000000
4824,0.0000000000
4825,0.0000000000
4826,0.0000000000
4827,0.0000000000
4828,0.0000000000
4829,0.0000000000
4830,0.0000000000
4831,0.0000000000
4832,0.0000000000
4833,0.0097751703
4834,0.0097751703
4835,0.0097751703
4836,0.0097751703
4837,0.0097751703
4838,0.0097751703
4839,0.0195503416
4840,0.0195503416
4841,0.0195503416
4842,0.0195503416
4843,0.0293255119
4844,0.0293255119
4845,0.0293255119
4846,0.0293255119
4847,0.0391006832
4848,0.0391006832
4849,0.0391006832
4850,0.0391006832
4851,0.0391006832
4852,0.0586510229
4853,0.0586510229
4854,0.0879765415
4855,0.0782013654
4856,0.0782013654
4857,0.0684261989
4858,0.0684261989
4859,0.0684261989
4860,0.0782013654
4861,0.0684261989
4862,0.0684261989
4863,0.0879765415
4864,0.0879765415
4865,0.0782013654
4866,0.0684261989
4867,0.0684261989
4868,0.0586510229
4869,0.0488758516
4870,0.0391006832
4871,0.0391006832
4872,0.0391006832
4873,0.0391006832
4874,0.0293255119
4875,0.0293255119
4876,0.0293255119
4877,0.0195503416
4878,0.0293255119
4879,0.0195503416
4880,0.0195503416
4881,0.0195503416
4882,0.0195503416
4883,0.0195503416
4884,0.0195503416
4885,0.0097751703
4886,0.0097751703
4887,0.0097751703
4888,0.0097751703
4889,0.0097751703
4890,0.0097751703
4891,0.0097751703
4892,0.0000000000
4893,0.0000000000
4894,0.0000000000
4895,0.0000000000
4896,0.0000000000
4897,0.0000000000
4898,0.0000000000
4899,0.0000000000
4900,0.0000000000
4901,0.0000000000
4902,0.0000000000
4903,0.0000000000
4904,0.0000000000
4905,0.0000000000
4906,0.0000000000
4907,0.0000000000
4908,0.0000000000
4909,0.0000000000
4910,0.0000000000
4911,0.0000000000
4912,0.0000000000
4913,0.0000000000
4914,0.0000000000
4915,0.0000000000
4916,0.0000000000
4917,0.0000000000
4918,0.0000000000
4919,0.0000000000
4920,0.0000000000
4921,0.0000000000
4922,0.0000000000
4923,0.0000000000
4924,0.0000000000
4925,0.0000000000
4926,0.0000000000
4927,0.0000000000
4928,0.0000000000
4929,0.0000000000
4930,0.0000000000
4931,0.0097751703
4932,0.0097751703
4933,0.0195503416
4934,0.0488758516
4935,0.0488758516
4936,0.0586510229
4937,0.0782013654
4938,0.0782013654
4939,0.0879765415
4940,0.0879765415
4941,0.0879765415
4942,0.0977517032
4943,0.1075268864
4944,0.1270772218
4945,0.1368523955
4946,0.1564027309
4947,0.1661779165
4948,0.1564027309
4949,0.1466275596
4950,0.1368523955
4951,0.1270772218
4952,0.0977517032
4953,0.1075268864
4954,0.0977517032
4955,0.0977517032
4956,0.0879765415
4957,0.0684261989
4958,0.0684261989
4959,0.0782013654
4960,0.0684261989
4961,0.0586510229
4962,0.0586510229
4963,0.0586510229
4964,0.0488758516
4965,0.0391006832
4966,0.0488758516
4967,0.0391006832
4968,0.0293255119
4969,0.0195503416
4970,0.0195503416
4971,0.0097751703
4972,0.0097751703
4973,0.0097751703
4974,0.0097751703
4975,0.0097751703
4976,0.0097751703
4977,0.0000000000
4978,0.0000000000
4979,0.0000000000
4980,0.0000000000
4981,0.0000000000
4982,0.0000000000
4983,0.0000000000
4984,0.0000000000
4985,0.0000000000
4986,0.0000000000
4987,0.0000000000
4988,0.0000000000
4989,0.0000000000
4990,0.0000000000
4991,0.0000000000
4992,0.0000000000
4993,0.0000000000
4994,0.0000000000
4995,0.0000000000
4996,0.0000000000
4997,0.0000000000
4998,0.0000000000
4999,0.0000000000
5000,0.0097751703
5001,0.8308895111
5002,0.6451612472
5003,0.5083088874
5004,0.4007820129
5005,0.3128054618
5006,0.2443792819
5007,0.1955034160
5008,0.1564027309
5009,0.1270772218
5010,0.0977517032
5011,0.0782013654
5012,0.0586510229
5013,0.0488758516
5014,0.0391006832
5015,0.0293255119
5016,0.0293255119
5017,0.0195503416
5018,0.0097751703
5019,0.0097751703
5020,0.0097751703
5021,0.0097751703
5022,0.0097751703
5023,0.0097751703
5024,0.0097751703
5025,0.0000000000
5026,0.0000000000
5027,0.0000000000
5028,0.0000000000
5029,0.0000000000
5030,0.0000000000
5031,0.0000000000
5032,0.0000000000
5033,0.0000000000
5034,0.0000000000
5035,0.0000000000
5036,0.0000000000
5037,0.0000000000
5038,0.0000000000
5039,0.0000000000
5040,0.0000000000
5041,0.0000000000
5042,0.0000000000
5043,0.0000000000
5044,0.0000000000
5045,0.0000000000
5046,0.0000000000
5047,0.0000000000
5048,0.0000000000
5049,0.0000000000
5050,0.0000000000
5051,0.0000000000
5052,0.0000000000
5053,0.0000000000
5054,0.0000000000
5055,0.0000000000
5056,0.0000000000
5057,0.0000000000
5058,0.0000000000
5059,0.0000000000
5060,0.0000000000
5061,0.0000000000
5062,0.0000000000
5063,0.0000000000
5064,0.0000000000
5065,0.0000000000
5066,0.0000000000
5067,0.0000000000
5068,0.0000000000
5069,0.0000000000
5070,0.0000000000
5071,0.0000000000
5072,0.0000000000
5073,0.0000000000
5074,0.0000000000
5075,0.0000000000
5076,0.0000000000
5077,0.0000000000
5078,0.0000000000
5079,0.0000000000
5080,0.0000000000
5081,0.0000000000
5082,0.0000000000
5083,0.0000000000
5084,0.0000000000
5085,0.0000000000
5086,0.0000000000
5087,0.0000000000
5088,0.0000000000
5089,0.0000000000
5090,0.0000000000
5091,0.0000000000
5092,0.0000000000
5093,0.0000000000
5094,0.0000000000
5095,0.0000000000
5096,0.0000000000
5097,0.0000000000
5098,0.0000000000
5099,0.0000000000
5100,0.0000000000
5101,0.0000000000
5102,0.0000000000
5103,0.0000000000
5104,0.0000000000
5105,0.0000000000
5106,0.0000000000
5107,0.0000000000
5108,0.0000000000
5109,0.0000000000
5110,0.0000000000
5111,0.0000000000
5112,0.0000000000
5113,0.0000000000
5114,0.0000000000
5115,0.0000000000
5116,0.0000000000
5117,0.0000000000
5118,0.0000000000
5119,0.0000000000
5120,0.0000000000
5121,0.0000000000
5122,0.0000000000
5123,0.0000000000
5124,0.0000000000
5125,0.0000000000
5126,0.0000000000
5127,0.0000000000
5128,0.0000000000
5129,0.0000000000
5130,0.0000000000
5131,0.0000000000
5132,0.0000000000
5133,0.0000000000
5134,0.0000000000
5135,0.0000000000
5136,0.0000000000
5137,0.0000000000
5138,0.0000000000
5139,0.0000000000
5140,0.0000000000
5141,0.0000000000
5142,0.0000000000
5143,0.0000000000
5144,0.0000000000
5145,0.0000000000
5146,0.0000000000
5147,0.0000000000
5148,0.0000000000
5149,0.0000000000
5150,0.0000000000
5151,0.0000000000
5152,0.0000000000
5153,0.0000000000
5154,0.0000000000
5155,0.0000000000
5156,0.0000000000
5157,0.0000000000
5158,0.0000000000
5159,0.0000000000
5160,0.0000000000
5161,0.0000000000
5162,0.0000000000
5163,0.0000000000
5164,0.0000000000
5165,0.0097751703
5166,0.0000000000
5167,0.0000000000
5168,0.0097751703
5169,0.0097751703
5170,0.0195503416
5171,0.0097751703
5172,0.0097751703
5173,0.0195503416
5174,0.0195503416
5175,0.0195503416
5176,0.0195503416
5177,0.0195503416
5178,0.0195503416
5179,0.0097751703
5180,0.0097751703
5181,0.0097751703
5182,0.0097751703
5183,0.0097751703
5184,0.0000000000
5185,0.0000000000
5186,0.0000000000
5187,0.0000000000
5188,0.0000000000
5189,0.0000000000
5190,0.0000000000
5191,0.0000000000
5192,0.0000000000
5193,0.0000000000
5194,0.0000000000
5195,0.0000000000
5196,0.0000000000
5197,0.0000000000
5198,0.0000000000
5199,0.0000000000
5200,0.0000000000
5201,0.0000000000
5202,0.0000000000
5203,0.0000000000
5204,0.0000000000
5205,0.0000000000
5206,0.0000000000
5207,0.0000000000
5208,0.0000000000
5209,0.0000000000
5210,0.0000000000
5211,0.0000000000
5212,0.0000000000
5213,0.0000000000
5214,0.0000000000
5215,0.0000000000
5216,0.0000000000
5217,0.0000000000
5218,0.0000000000
5219,0.0000000000
5220,0.0000000000
5221,0.0000000000
5222,0.0000000000
5223,0.0000000000
5224,0.0000000000
5225,0.0000000000
5226,0.0000000000
5227,0.0000000000
5228,0.0000000000
5229,0.0000000000
5230,0.0000000000
5231,0.0000000000
5232,0.0000000000
5233,0.0000000000
5234,0.0000000000
5235,0.0000000000
5236,0.0000000000
5237,0.0000000000
5238,0.0000000000
5239,0.0000000000
5240,0.0000000000
5241,0.0000000000
5242,0.0000000000
5243,0.0000000000
5244,0.0000000000
5245,0.0000000000
5246,0.0000000000
5247,0.0000000000
5248,0.0000000000
5249,0.0000000000
5250,0.0000000000
5251,0.0000000000
5252,0.0000000000
5253,0.0000000000
5254,0.0000000000
5255,0.0000000000
5256,0.0000000000
5257,0.0000000000
5258,0.0000000000
5259,0.0000000000
5260,0.0000000000
5261,0.0000000000
5262,0.0000000000
5263,0.0000000000
5264,0.0000000000
5265,0.0000000000
5266,0.0000000000
5267,0.0000000000
5268,0.0000000000
5269,0.0000000000
5270,0.0000000000
5271,0.0000000000
5272,0.0000000000
5273,0.0000000000
5274,0.0000000000
5275,0.0000000000
5276,0.0000000000
5277,0.0000000000
5278,0.0000000000
5279,0.0000000000
5280,0.0000000000
5281,0.0000000000
5282,0.0000000000
5283,0.0000000000
5284,0.0000000000
5285,0.0000000000
5286,0.0000000000
5287,0.0000000000
5288,0.0000000000
5289,0.0000000000
5290,0.0000000000
5291,0.0000000000
5292,0.0000000000
5293,0.0000000000
5294,0.0000000000
5295,0.0000000000
5296,0.0000000000
5297,0.0000000000
5298,0.0000000000
5299,0.0000000000
5300,0.0000000000
5301,0.0000000000
5302,0.0000000000
5303,0.0000000000
5304,0.0000000000
5305,0.0000000000
5306,0.0000000000
5307,0.0000000000
5308,0.0000000000
5309,0.0000000000
5310,0.0000000000
5311,0.0000000000
5312,0.0000000000
5313,0.0000000000
5314,0.0000000000
5315,0.0000000000
5316,0.0000000000
5317,0.0000000000
5318,0.0000000000
5319,0.0000000000
5320,0.0000000000
5321,0.0000000000
5322,0.0000000000
5323,0.0000000000
5324,0.0000000000
5325,0.0000000000
5326,0.0000000000
5327,0.0000000000
5328,0.0000000000
5329,0.0000000000
5330,0.0000000000
5331,0.0000000000
5332,0.0000000000
5333,0.0000000000
5334,0.0000000000
5335,0.0000000000
5336,0.0000000000
5337,0.0000000000
5338,0.0000000000
5339,0.0000000000
5340,0.0000000000
5341,0.0000000000
5342,0.0000000000
5343,0.0000000000
5344,0.0000000000
5345,0.0000000000
5346,0.0000000000
5347,0.0000000000
5348,0.0000000000
5349,0.0000000000
5350,0.0000000000
5351,0.0000000000
5352,0.0000000000
5353,0.0000000000
5354,0.0000000000
5355,0.0000000000
5356,0.0000000000
5357,0.0000000000
5358,0.0000000000
5359,0.0000000000
5360,0.0000000000
5361,0.0000000000
5362,0.0000000000
5363,0.0000000000
5364,0.0000000000
5365,0.0000000000
5366,0.0000000000
5367,0.0000000000
5368,0.0000000000
5369,0.0000000000
5370,0.0000000000
5371,0.0000000000
5372,0.0000000000
5373,0.0000000000
5374,0.0000000000
5375,0.0000000000
5376,0.0000000000
5377,0.0000000000
5378,0.0000000000
5379,0.0000000000
5380,0.0000000000
5381,0.0000000000
5382,0.0000000000
5383,0.0000000000
5384,0.0000000000
5385,0.0000000000
5386,0.0000000000
5387,0.0000000000
5388,0.0000000000
5389,0.0000000000
5390,0.0000000000
5391,0.0000000000
5392,0.0000000000
5393,0.0000000000
5394,0.0000000000
5395,0.0000000000
5396,0.0000000000
5397,0.0000000000
5398,0.0000000000
5399,0.0000000000
5400,0.0000000000
5401,0.0000000000
5402,0.0000000000
5403,0.0000000000
5404,0.0000000000
5405,0.0000000000
5406,0.0000000000
5407,0.0000000000
5408,0.0000000000
5409,0.0000000000
5410,0.0000000000
5411,0.0000000000
5412,0.0000000000
5413,0.0000000000
5414,0.0000000000
5415,0.0000000000
5416,0.0000000000
5417,0.0000000000
5418,0.0000000000
5419,0.0000000000
5420,0.0000000000
5421,0.0000000000
5422,0.0000000000
5423,0.0000000000
5424,0.0000000000
5425,0.0000000000
5426,0.0000000000
5427,0.0000000000
5428,0.0000000000
5429,0.0000000000
5430,0.0000000000
5431,0.0000000000
5432,0.0000000000
5433,0.0000000000
5434,0.0000000000
5435,0.0000000000
5436,0.0000000000
5437,0.0000000000
5438,0.0000000000
5439,0.0000000000
5440,0.0000000000
5441,0.0000000000
5442,0.0000000000
5443,0.0000000000
5444,0.0000000000
5445,0.0000000000
5446,0.0000000000
5447,0.0000000000
5448,0.0000000000
5449,0.0000000000
5450,0.0000000000
5451,0.0000000000
5452,0.0000000000
5453,0.0000000000
5454,0.0000000000
5455,0.0000000000
5456,0.0000000000
5457,0.0000000000
5458,0.0000000000
5459,0.0000000000
5460,0.0000000000
5461,0.0000000000
5462,0.0000000000
5463,0.0000000000
5464,0.0000000000
5465,0.0000000000
5466,0.0000000000
5467,0.0000000000
5468,0.0000000000
5469,0.0000000000
5470,0.0000000000
5471,0.0000000000
5472,0.0000000000
5473,0.0000000000
5474,0.0000000000
5475,0.0000000000
5476,0.0000000000
5477,0.0000000000
5478,0.0000000000
5479,0.0000000000
5480,0.0000000000
5481,0.0000000000
5482,0.0000000000
5483,0.0000000000
5484,0.0000000000
5485,0.0000000000
5486,0.0000000000
5487,0.0000000000
5488,0.0000000000
5489,0.0000000000
5490,0.0000000000
5491,0.0000000000
5492,0.0000000000
5493,0.0000000000
5494,0.0000000000
5495,0.0000000000
5496,0.0000000000
5497,0.0000000000
5498,0.0000000000
5499,0.0000000000
5500,0.0000000000
5501,0.0000000000
5502,0.0000000000
5503,0.0000000000
5504,0.0000000000
5505,0.0000000000
5506,0.0000000000
5507,0.0000000000
5508,0.0000000000
5509,0.0000000000
5510,0.0000000000
5511,0.0000000000
5512,0.0000000000
5513,0.0000000000
5514,0.0000000000
5515,0.0000000000
5516,0.0000000000
5517,0.0000000000
5518,0.0000000000
5519,0.0000000000
5520,0.0000000000
5521,0.0000000000
5522,0.0000000000
5523,0.0000000000
5524,0.0000000000
5525,0.0000000000
5526,0.0000000000
5527,0.0000000000
5528,0.0000000000
5529,0.0000000000
5530,0.0000000000
5531,0.0000000000
5532,0.0000000000
5533,0.0000000000
5534,0.0000000000
5535,0.0000000000
5536,0.0000000000
5537,0.0000000000
5538,0.0000000000
5539,0.0000000000
5540,0.0000000000
5541,0.0000000000
5542,0.0000000000
5543,0.0000000000
5544,0.0000000000
5545,0.0000000000
5546,0.0000000000
5547,0.0000000000
5548,0.0000000000
5549,0.0000000000
5550,0.0000000000
5551,0.0000000000
5552,0.0000000000
5553,0.0000000000
5554,0.0000000000
5555,0.0000000000
5556,0.0000000000
5557,0.0000000000
5558,0.0000000000
5559,0.0000000000
5560,0.0000000000
5561,0.0000000000
5562,0.0000000000
5563,0.0000000000
5564,0.0000000000
5565,0.0000000000
5566,0.0000000000
5567,0.0000000000
5568,0.0000000000
5569,0.0000000000
5570,0.0000000000
5571,0.0000000000
5572,0.0000000000
5573,0.0000000000
5574,0.0000000000
5575,0.0000000000
5576,0.0000000000
5577,0.0000000000
5578,0.0000000000
5579,0.0000000000
5580,0.0000000000
5581,0.0000000000
5582,0.0000000000
5583,0.0000000000
5584,0.0000000000
5585,0.0000000000
5586,0.0000000000
5587,0.0000000000
5588,0.0000000000
5589,0.0000000000
5590,0.0000000000
5591,0.0000000000
5592,0.0000000000
5593,0.0000000000
5594,0.0000000000
5595,0.0000000000
5596,0.0000000000
5597,0.0000000000
5598,0.0000000000
5599,0.0000000000
5600,0.0000000000
5601,0.0000000000
5602,0.0000000000
5603,0.0000000000
5604,0.0000000000
5605,0.0000000000
5606,0.0000000000
5607,0.0000000000
5608,0.0000000000
5609,0.0000000000
5610,0.0000000000
5611,0.0000000000
5612,0.0000000000
5613,0.0000000000
5614,0.0000000000
5615,0.0000000000
5616,0.0000000000
5617,0.0000000000
5618,0.0000000000
5619,0.0000000000
5620,0.0000000000
5621,0.0000000000
5622,0.0000000000
5623,0.0000000000
5624,0.0000000000
5625,0.0000000000
5626,0.0000000000
5627,0.0000000000
5628,0.0000000000
5629,0.0000000000
5630,0.0000000000
5631,0.0000000000
5632,0.0000000000
5633,0.0000000000
5634,0.0000000000
5635,0.0000000000
5636,0.0000000000
5637,0.0000000000
5638,0.0000000000
5639,0.0000000000
5640,0.0000000000
5641,0.0000000000
5642,0.0000000000
5643,0.0000000000
5644,0.0000000000
5645,0.0000000000
5646,0.0000000000
5647,0.0000000000
5648,0.0000000000
5649,0.0000000000
5650,0.0000000000
5651,0.0000000000
5652,0.0000000000
5653,0.0000000000
5654,0.0000000000
5655,0.0000000000
5656,0.0000000000
5657,0.0000000000
5658,0.0000000000
5659,0.0000000000
5660,0.0000000000
5661,0.0000000000
5662,0.0000000000
5663,0.0000000000
5664,0.0000000000
5665,0.0000000000
5666,0.0000000000
5667,0.0000000000
5668,0.0000000000
5669,0.0000000000
5670,0.0000000000
5671,0.0000000000
5672,0.0000000000
5673,0.0000000000
5674,0.0000000000
5675,0.0000000000
5676,0.0000000000
5677,0.0000000000
5678,0.0000000000
5679,0.0000000000
5680,0.0000000000
5681,0.0000000000
5682,0.0000000000
5683,0.0000000000
5684,0.0000000000
5685,0.0000000000
5686,0.0000000000
5687,0.0000000000
5688,0.0000000000
5689,0.0000000000
5690,0.0000000000
5691,0.0000000000
5692,0.0000000000
5693,0.0000000000
5694,0.0000000000
5695,0.0000000000
5696,0.0000000000
5697,0.0000000000
5698,0.0000000000
5699,0.0000000000
5700,0.0000000000
5701,0.0000000000
5702,0.0000000000
5703,0.0000000000
5704,0.0000000000
5705,0.0000000000
5706,0.0000000000
5707,0.0000000000
5708,0.0000000000
5709,0.0000000000
5710,0.0000000000
5711,0.0000000000
5712,0.0000000000
5713,0.0000000000
5714,0.0000000000
5715,0.0000000000
5716,0.0000000000
5717,0.0000000000
5718,0.0000000000
5719,0.0000000000
5720,0.0000000000
5721,0.0000000000
5722,0.0000000000
5723,0.0000000000
5724,0.0000000000
5725,0.0000000000
5726,0.0000000000
5727,0.0000000000
5728,0.0000000000
5729,0.0000000000
5730,0.0000000000
5731,0.0000000000
5732,0.0000000000
5733,0.0000000000
5734,0.0000000000
5735,0.0000000000
5736,0.0000000000
5737,0.0000000000
5738,0.0000000000
5739,0.0000000000
5740,0.0000000000
5741,0.0000000000
5742,0.0000000000
5743,0.0000000000
5744,0.0000000000
5745,0.0000000000
5746,0.0000000000
5747,0.0000000000
5748,0.0000000000
5749,0.0000000000
5750,0.0000000000
5751,0.0000000000
5752,0.0000000000
5753,0.0000000000
5754,0.0000000000
5755,0.0000000000
5756,0.0000000000
5757,0.0000000000
5758,0.0000000000
5759,0.0000000000
5760,0.0000000000
5761,0.0000000000
5762,0.0000000000
5763,0.0000000000
5764,0.0000000000
5765,0.0000000000
5766,0.0000000000
5767,0.0000000000
5768,0.0000000000
5769,0.0000000000
5770,0.0000000000
5771,0.0000000000
5772,0.0000000000
5773,0.0000000000
5774,0.0000000000
5775,0.0000000000
5776,0.0000000000
5777,0.0000000000
5778,0.0000000000
5779,0.0000000000
5780,0.0000000000
5781,0.0000000000
5782,0.0000000000
5783,0.0000000000
5784,0.0000000000
5785,0.0000000000
5786,0.0000000000
5787,0.0000000000
5788,0.0000000000
5789,0.0000000000
5790,0.0000000000
5791,0.0000000000
5792,0.0000000000
5793,0.0000000000
5794,0.0000000000
5795,0.0000000000
5796,0.0000000000
5797,0.0000000000
5798,0.0000000000
5799,0.0000000000
5800,0.0000000000
5801,0.0000000000
5802,0.0000000000
5803,0.0000000000
5804,0.0000000000
5805,0.0000000000
5806,0.0000000000
5807,0.0000000000
5808,0.0000000000
5809,0.0000000000
5810,0.0000000000
5811,0.0000000000
5812,0.0000000000
5813,0.0000000000
5814,0.0000000000
5815,0.0000000000
5816,0.0000000000
5817,0.0000000000
5818,0.0000000000
5819,0.0000000000
5820,0.0000000000
5821,0.0000000000
5822,0.0000000000
5823,0.0000000000
5824,0.0000000000
5825,0.0000000000
5826,0.0000000000
5827,0.0000000000
5828,0.0000000000
5829,0.0000000000
5830,0.0000000000
5831,0.0000000000
5832,0.0000000000
5833,0.0000000000
5834,0.0000000000
5835,0.0000000000
5836,0.0000000000
5837,0.0000000000
5838,0.0000000000
5839,0.0000000000
5840,0.0000000000
5841,0.0000000000
5842,0.0000000000
5843,0.0000000000
5844,0.0000000000
5845,0.0000000000
5846,0.0000000000
5847,0.0000000000
5848,0.0000000000
5849,0.0000000000
5850,0.0000000000
5851,0.0000000000
5852,0.0000000000
5853,0.0000000000
5854,0.0000000000
5855,0.0000000000
5856,0.0000000000
5857,0.0000000000
5858,0.0000000000
5859,0.0000000000
5860,0.0000000000
5861,0.0000000000
5862,0.0000000000
5863,0.0000000000
5864,0.0000000000
5865,0.0000000000
5866,0.0000000000
5867,0.0000000000
5868,0.0000000000
5869,0.0000000000
5870,0.0000000000
5871,0.0000000000
5872,0.0000000000
5873,0.0000000000
5874,0.0000000000
5875,0.0000000000
5876,0.0000000000
5877,0.0000000000
5878,0.0000000000
5879,0.0000000000
5880,0.0000000000
5881,0.0000000000
5882,0.0000000000
5883,0.0000000000
5884,0.0000000000
5885,0.0000000000
5886,0.0000000000
5887,0.0000000000
5888,0.0000000000
5889,0.0000000000
5890,0.0000000000
5891,0.0000000000
5892,0.0000000000
5893,0.0000000000
5894,0.0000000000
5895,0.0000000000
5896,0.0000000000
5897,0.0000000000
5898,0.0000000000
5899,0.0000000000
5900,0.0000000000
5901,0.0000000000
5902,0.0000000000
5903,0.0000000000
5904,0.0000000000
5905,0.0000000000
5906,0.0000000000
5907,0.0000000000
5908,0.0000000000
5909,0.0000000000
5910,0.0000000000
5911,0.0000000000
5912,0.0000000000
5913,0.0000000000
5914,0.0000000000
5915,0.0000000000
5916,0.0000000000
5917,0.0000000000
5918,0.0000000000
5919,0.0000000000
5920,0.0000000000
5921,0.0000000000
5922,0.0000000000
5923,0.0000000000
5924,0.0000000000
5925,0.0000000000
5926,0.0000000000
5927,0.0000000000
5928,0.0000000000
5929,0.0000000000
5930,0.0000000000
5931,0.0000000000
5932,0.0000000000
5933,0.0000000000
5934,0.0000000000
5935,0.0000000000
5936,0.0000000000
5937,0.0000000000
5938,0.0000000000
5939,0.0000000000
5940,0.0000000000
5941,0.0000000000
5942,0.0000000000
5943,0.0000000000
5944,0.0000000000
5945,0.0000000000
5946,0.0000000000
5947,0.0000000000
5948,0.0000000000
5949,0.0000000000
5950,0.0000000000
5951,0.0000000000
5952,0.0000000000
5953,0.0000000000
5954,0.0000000000
5955,0.0000000000
5956,0.0000000000
5957,0.0000000000
5958,0.0000000000
5959,0.0000000000
5960,0.0000000000
5961,0.0000000000
5962,0.0000000000
5963,0.0000000000
5964,0.0000000000
5965,0.0000000000
5966,0.0000000000
5967,0.0000000000
5968,0.0000000000
5969,0.0000000000
5970,0.0000000000
5971,0.0000000000
5972,0.0000000000
5973,0.0000000000
5974,0.0000000000
5975,0.0000000000
5976,0.0000000000
5977,0.0000000000
5978,0.0000000000
5979,0.0000000000
5980,0.0000000000
5981,0.0000000000
5982,0.0000000000
5983,0.0000000000
5984,0.0000000000
5985,0.0000000000
5986,0.0000000000
5987,0.0000000000
5988,0.0000000000
5989,0.0000000000
5990,0.0000000000
5991,0.0000000000
5992,0.0000000000
5993,0.0000000000
5994,0.0000000000
5995,0.0000000000
5996,0.0000000000
5997,0.0000000000
5998,0.0000000000
5999,0.0000000000
6000,0.0097751703
6001,1.1339198350
6002,0.8993157386
6003,0.7038123130
6004,0.5571847438
6005,0.4496578693
6006,0.3519061565
6007,0.2834799575
6008,0.2248289346
6009,0.1857282543
6010,0.1466275596
6011,0.1270772218
6012,0.0977517032
6013,0.0879765415
6014,0.0684261989
6015,0.0684261989
6016,0.0586510229
6017,0.0488758516
6018,0.0391006832
6019,0.0586510229
6020,0.0586510229
6021,0.0684261989
6022,0.0684261989
6023,0.1270772218
6024,0.1661779165
6025,0.2052785873
6026,0.2052785873
6027,0.2150537729
6028,0.3030303001
6029,0.2932551193
6030,0.3128054618
6031,0.3030303001
6032,0.3030303001
6033,0.2737047910
6034,0.2834799575
6035,0.2737047910
6036,0.2639296054
6037,0.2541544437
6038,0.2541544437
6039,0.2248289346
6040,0.2150537729
6041,0.1955034160
6042,0.2150537729
6043,0.1857282543
6044,0.1857282543
6045,0.1661779165
6046,0.1564027309
6047,0.1466275596
6048,0.1368523955
6049,0.1173020482
6050,0.1075268864
6051,0.0977517032
6052,0.0977517032
6053,0.1075268864
6054,0.0977517032
6055,0.0977517032
6056,0.0879765415
6057,0.0879765415
6058,0.0879765415
6059,0.0879765415
6060,0.0879765415
6061,0.0684261989
6062,0.0684261989
6063,0.0684261989
6064,0.0684261989
6065,0.0488758516
6066,0.0488758516
6067,0.0586510229
6068,0.0586510229
6069,0.0684261989
6070,0.0684261989
6071,0.0586510229
6072,0.0586510229
6073,0.0586510229
6074,0.0586510229
6075,0.0586510229
6076,0.0586510229
6077,0.0586510229
6078,0.0488758516
6079,0.0488758516
6080,0.0391006832
6081,0.0391006832
6082,0.0391006832
6083,0.0293255119
6084,0.0293255119
6085,0.0293255119
6086,0.0293255119
6087,0.0293255119
6088,0.0293255119
6089,0.0293255119
6090,0.0195503416
6091,0.0195503416
6092,0.0195503416
6093,0.0195503416
6094,0.0195503416
6095,0.0195503416
6096,0.0195503416
6097,0.0195503416
6098,0.0195503416
6099,0.0097751703
6100,0.0195503416
6101,0.0195503416
6102,0.0195503416
6103,0.0195503416
6104,0.0293255119
6105,0.0293255119
6106,0.0391006832
6107,0.0488758516
6108,0.0782013654
6109,0.0782013654
6110,0.1368523955
6111,0.1759530782
6112,0.1759530782
6113,0.2052785873
6114,0.2443792819
6115,0.2346040964
6116,0.2737047910
6117,0.2639296054
6118,0.2834799575
6119,0.2932551193
6120,0.2932551193
6121,0.2834799575
6122,0.2737047910
6123,0.3128054618
6124,0.2834799575
6125,0.2541544437
6126,0.2541544437
6127,0.2248289346
6128,0.2346040964
6129,0.2248289346
6130,0.2052785873
6131,0.1857282543
6132,0.1759530782
6133,0.1564027309
6134,0.1368523955
6135,0.1270772218
6136,0.1270772218
6137,0.1173020482
6138,0.1173020482
6139,0.1173020482
6140,0.1075268864
6141,0.0977517032
6142,0.0977517032
6143,0.0977517032
6144,0.0879765415
6145,0.0879765415
6146,0.0879765415
6147,0.0782013654
6148,0.0782013654
6149,0.0684261989
6150,0.0684261989
6151,0.0684261989
6152,0.0684261989
6153,0.0684261989
6154,0.0586510229
6155,0.0586510229
6156,0.0586510229
6157,0.0586510229
6158,0.0586510229
6159,0.0586510229
6160,0.0586510229
6161,0.0586510229
6162,0.0586510229
6163,0.0684261989
6164,0.0586510229
6165,0.0488758516
6166,0.0488758516
6167,0.0488758516
6168,0.0488758516
6169,0.0488758516
6170,0.0391006832
6171,0.0293255119
6172,0.0293255119
6173,0.0195503416
6174,0.0195503416
6175,0.0195503416
6176,0.0195503416
6177,0.0391006832
6178,0.0391006832
6179,0.0391006832
6180,0.0293255119
6181,0.0195503416
6182,0.0195503416
6183,0.0293255119
6184,0.0195503416
6185,0.0195503416
6186,0.0293255119
6187,0.0195503416
6188,0.0195503416
6189,0.0293255119
6190,0.0195503416
6191,0.0293255119
6192,0.0195503416
6193,0.0195503416
6194,0.0195503416
6195,0.0195503416
6196,0.0195503416
6197,0.0195503416
6198,0.0293255119
6199,0.0391006832
6200,0.0586510229
6201,0.0782013654
6202,0.1075268864
6203,0.1368523955
6204,0.1955034160
6205,0.1857282543
6206,0.2150537729
6207,0.2150537729
6208,0.2443792819
6209,0.3225806236
6210,0.3030303001
6211,0.2834799575
6212,0.2834799575
6213,0.3128054618
6214,0.3030303001
6215,0.2834799575
6216,0.2639296054
6217,0.2346040964
6218,0.2248289346
6219,0.2052785873
6220,0.1955034160
6221,0.1857282543
6222,0.1661779165
6223,0.1564027309
6224,0.1368523955
6225,0.1173020482
6226,0.1173020482
6227,0.1075268864
6228,0.1075268864
6229,0.0977517032
6230,0.0879765415
6231,0.0782013654
6232,0.0879765415
6233,0.0879765415
6234,0.0879765415
6235,0.0879765415
6236,0.0782013654
6237,0.0879765415
6238,0.0782013654
6239,0.0879765415
6240,0.0684261989
6241,0.0684261989
6242,0.0586510229
6243,0.0586510229
6244,0.0488758516
6245,0.0488758516
6246,0.0488758516
6247,0.0488758516
6248,0.0488758516
6249,0.0488758516
6250,0.0586510229
6251,0.0488758516
6252,0.0488758516
6253,0.0488758516
6254,0.0586510229
6255,0.0488758516
6256,0.0488758516
6257,0.0488758516
6258,0.0391006832
6259,0.0391006832
6260,0.0391006832
6261,0.0293255119
6262,0.0293255119
6263,0.0293255119
6264,0.0293255119
6265,0.0293255119
6266,0.0195503416
6267,0.0195503416
6268,0.0195503416
6269,0.0195503416
6270,0.0195503416
6271,0.0195503416
6272,0.0195503416
6273,0.0195503416
6274,0.0293255119
6275,0.0293255119
6276,0.0293255119
6277,0.0293255119
6278,0.0293255119
6279,0.0488758516
6280,0.1075268864
6281,0.1270772218
6282,0.1368523955
6283,0.1564027309
6284,0.1759530782
6285,0.2248289346
6286,0.2541544437
6287,0.2346040964
6288,0.2737047910
6289,0.2639296054
6290,0.2834799575
6291,0.3519061565
6292,0.3714565038
6293,0.4007820129
6294,0.4594330310
6295,0.4203323364
6296,0.3714565038
6297,0.3519061565
6298,0.3225806236
6299,0.3030303001
6300,0.2737047910
6301,0.2737047910
6302,0.2346040964
6303,0.2150537729
6304,0.1759530782
6305,0.1759530782
6306,0.1564027309
6307,0.1368523955
6308,0.1368523955
6309,0.1368523955
6310,0.1173020482
6311,0.1270772218
6312,0.1173020482
6313,0.1075268864
6314,0.0977517032
6315,0.1075268864
6316,0.0977517032
6317,0.0879765415
6318,0.0782013654
6319,0.0782013654
6320,0.0879765415
6321,0.0782013654
6322,0.0684261989
6323,0.0684261989
6324,0.0684261989
6325,0.0586510229
6326,0.0586510229
6327,0.0586510229
6328,0.0586510229
6329,0.0684261989
6330,0.0586510229
6331,0.0586510229
6332,0.0586510229
6333,0.0391006832
6334,0.0391006832
6335,0.0488758516
6336,0.0488758516
6337,0.0391006832
6338,0.0391006832
6339,0.0391006832
6340,0.0293255119
6341,0.0293255119
6342,0.0293255119
6343,0.0293255119
6344,0.0195503416
6345,0.0195503416
6346,0.0195503416
6347,0.0195503416
6348,0.0195503416
6349,0.0195503416
6350,0.0195503416
6351,0.0195503416
6352,0.0195503416
6353,0.0195503416
6354,0.0195503416
6355,0.0195503416
6356,0.0293255119
6357,0.0195503416
6358,0.0195503416
6359,0.0195503416
6360,0.0195503416
6361,0.0293255119
6362,0.0488758516
6363,0.0879765415
6364,0.1173020482
6365,0.1173020482
6366,0.1368523955
6367,0.1759530782
6368,0.2150537729
6369,0.2541544437
6370,0.2932551193
6371,0.3030303001
6372,0.3910068321
6373,0.4594330310
6374,0.4594330310
6375,0.4398827075
6376,0.4203323364
6377,0.4105571746
6378,0.3812316703
6379,0.3421309947
6380,0.3616813421
6381,0.3812316703
6382,0.3714565038
6383,0.3225806236
6384,0.3225806236
6385,0.3128054618
6386,0.2639296054
6387,0.2346040964
6388,0.2052785873
6389,0.1759530782
6390,0.1661779165
6391,0.1564027309
6392,0.1466275596
6393,0.1270772218
6394,0.1173020482
6395,0.1075268864
6396,0.0977517032
6397,0.1075268864
6398,0.0879765415
6399,0.0782013654
6400,0.0879765415
6401,0.0782013654
6402,0.0879765415
6403,0.0782013654
6404,0.0684261989
6405,0.0586510229
6406,0.0586510229
6407,0.0586510229
6408,0.0586510229
6409,0.0684261989
6410,0.0684261989
6411,0.0684261989
6412,0.0586510229
6413,0.0586510229
6414,0.0586510229
6415,0.0488758516
6416,0.0488758516
6417,0.0488758516
6418,0.0488758516
6419,0.0488758516
6420,0.0488758516
6421,0.0488758516
6422,0.0391006832
6423,0.0391006832
6424,0.0391006832
6425,0.0391006832
6426,0.0293255119
6427,0.0293255119
6428,0.0293255119
6429,0.0293255119
6430,0.0195503416
6431,0.0195503416
6432,0.0195503416
6433,0.0097751703
6434,0.0195503416
6435,0.0195503416
6436,0.0195503416
6437,0.0195503416
6438,0.0195503416
6439,0.0293255119
6440,0.0195503416
6441,0.0195503416
6442,0.0195503416
6443,0.0195503416
6444,0.0195503416
6445,0.0293255119
6446,0.0195503416
6447,0.0293255119
6448,0.0391006832
6449,0.0488758516
6450,0.0488758516
6451,0.0782013654
6452,0.0977517032
6453,0.1270772218
6454,0.1564027309
6455,0.1857282543
6456,0.2541544437
6457,0.3714565038
6458,0.3519061565
6459,0.3225806236
6460,0.2932551193
6461,0.2932551193
6462,0.2932551193
6463,0.2834799575
6464,0.3030303001
6465,0.2834799575
6466,0.2639296054
6467,0.2541544437
6468,0.2346040964
6469,0.2248289346
6470,0.2150537729
6471,0.1955034160
6472,0.2052785873
6473,0.1857282543
6474,0.1857282543
6475,0.1564027309
6476,0.1564027309
6477,0.1368523955
6478,0.1466275596
6479,0.1368523955
6480,0.1270772218
6481,0.1368523955
6482,0.1173020482
6483,0.1173020482
6484,0.1075268864
6485,0.0977517032
6486,0.0879765415
6487,0.1075268864
6488,0.1075268864
6489,0.0879765415
6490,0.0879765415
6491,0.0879765415
6492,0.0684261989
6493,0.0684261989
6494,0.0684261989
6495,0.0684261989
6496,0.0586510229
6497,0.0586510229
6498,0.0586510229
6499,0.0684261989
6500,0.0684261989
6501,0.0586510229
6502,0.0684261989
6503,0.0488758516
6504,0.0586510229
6505,0.0488758516
6506,0.0391006832
6507,0.0488758516
6508,0.0586510229
6509,0.0586510229
6510,0.0391006832
6511,0.0488758516
6512,0.0488758516
6513,0.0488758516
6514,0.0391006832
6515,0.0488758516
6516,0.0488758516
6517,0.0488758516
6518,0.0391006832
6519,0.0391006832
6520,0.0293255119
6521,0.0293255119
6522,0.0195503416
6523,0.0195503416
6524,0.0195503416
6525,0.0195503416
6526,0.0293255119
6527,0.0293255119
6528,0.0195503416
6529,0.0195503416
6530,0.0195503416
6531,0.0195503416
6532,0.0195503416
6533,0.0293255119
6534,0.0293255119
6535,0.0391006832
6536,0.0586510229
6537,0.1270772218
6538,0.1564027309
6539,0.1661779165
6540,0.1759530782
6541,0.1955034160
6542,0.2639296054
6543,0.3128054618
6544,0.3128054618
6545,0.2932551193
6546,0.2737047910
6547,0.2639296054
6548,0.2737047910
6549,0.2541544437
6550,0.2346040964
6551,0.2541544437
6552,0.2248289346
6553,0.2248289346
6554,0.2052785873
6555,0.1857282543
6556,0.1661779165
6557,0.1661779165
6558,0.1466275596
6559,0.1368523955
6560,0.1466275596
6561,0.1368523955
6562,0.1075268864
6563,0.1075268864
6564,0.0977517032
6565,0.0977517032
6566,0.0782013654
6567,0.0782013654
6568,0.0782013654
6569,0.0684261989
6570,0.0684261989
6571,0.0586510229
6572,0.0586510229
6573,0.0488758516
6574,0.0586510229
6575,0.0586510229
6576,0.0488758516
6577,0.0488758516
6578,0.0684261989
6579,0.0586510229
6580,0.0488758516
6581,0.0488758516
6582,0.0391006832
6583,0.0488758516
6584,0.0391006832
6585,0.0391006832
6586,0.0391006832
6587,0.0293255119
6588,0.0293255119
6589,0.0293255119
6590,0.0293255119
6591,0.0391006832
6592,0.0391006832
6593,0.0391006832
6594,0.0293255119
6595,0.0293255119
6596,0.0195503416
6597,0.0195503416
6598,0.0195503416
6599,0.0195503416
6600,0.0195503416
6601,0.0195503416
6602,0.0195503416
6603,0.0097751703
6604,0.0195503416
6605,0.0195503416
6606,0.0195503416
6607,0.0195503416
6608,0.0195503416
6609,0.0293255119
6610,0.0195503416
6611,0.0195503416
6612,0.0195503416
6613,0.0195503416
6614,0.0293255119
6615,0.0488758516
6616,0.0977517032
6617,0.1270772218
6618,0.1564027309
6619,0.2150537729
6620,0.2248289346
6621,0.2150537729
6622,0.2052785873
6623,0.1955034160
6624,0.1955034160
6625,0.1857282543
6626,0.1955034160
6627,0.2150537729
6628,0.1955034160
6629,0.2052785873
6630,0.2052785873
6631,0.2052785873
6632,0.1857282543
6633,0.1661779165
6634,0.1466275596
6635,0.1466275596
6636,0.1270772218
6637,0.1270772218
6638,0.1270772218
6639,0.1173020482
6640,0.1075268864
6641,0.1075268864
6642,0.1075268864
6643,0.0977517032
6644,0.0879765415
6645,0.0879765415
6646,0.0879765415
6647,0.0782013654
6648,0.0782013654
6649,0.0782013654
6650,0.0684261989
6651,0.0586510229
6652,0.0684261989
6653,0.0684261989
6654,0.0586510229
6655,0.0684261989
6656,0.0684261989
6657,0.0586510229
6658,0.0684261989
6659,0.0586510229
6660,0.0586510229
6661,0.0488758516
6662,0.0391006832
6663,0.0586510229
6664,0.0488758516
6665,0.0586510229
6666,0.0782013654
6667,0.0782013654
6668,0.0586510229
6669,0.0684261989
6670,0.0586510229
6671,0.0488758516
6672,0.0488758516
6673,0.0488758516
6674,0.0488758516
6675,0.0488758516
6676,0.0488758516
6677,0.0488758516
6678,0.0586510229
6679,0.0586510229
6680,0.0488758516
6681,0.0391006832
6682,0.0488758516
6683,0.0391006832
6684,0.0391006832
6685,0.0293255119
6686,0.0293255119
6687,0.0391006832
6688,0.0391006832
6689,0.0293255119
6690,0.0391006832
6691,0.0293255119
6692,0.0293255119
6693,0.0195503416
6694,0.0195503416
6695,0.0195503416
6696,0.0195503416
6697,0.0195503416
6698,0.0293255119
6699,0.0195503416
6700,0.0195503416
6701,0.0195503416
6702,0.0097751703
6703,0.0195503416
6704,0.0195503416
6705,0.0195503416
6706,0.0391006832
6707,0.0684261989
6708,0.0879765415
6709,0.0879765415
6710,0.1075268864
6711,0.1564027309
6712,0.1857282543
6713,0.2346040964
6714,0.2639296054
6715,0.3128054618
6716,0.3030303001
6717,0.2932551193
6718,0.2639296054
6719,0.2346040964
6720,0.2346040964
6721,0.2150537729
6722,0.1857282543
6723,0.1759530782
6724,0.1564027309
6725,0.1466275596
6726,0.1564027309
6727,0.1466275596
