0,0.0097751703
1,0.0195503416
2,0.0195503416
3,0.0195503416
4,0.0195503416
5,0.0195503416
6,0.0195503416
7,0.0195503416
8,0.0195503416
9,0.0195503416
10,0.0195503416
11,0.0293255119
12,0.0293255119
13,0.0195503416
14,0.0195503416
15,0.0195503416
16,0.0293255119
17,0.0293255119
18,0.0195503416
19,0.0195503416
20,0.0195503416
21,0.0195503416
22,0.0195503416
23,0.0195503416
24,0.0195503416
25,0.0195503416
26,0.0195503416
27,0.0097751703
28,0.0097751703
29,0.0195503416
30,0.0097751703
31,0.0097751703
32,0.0097751703
33,0.0195503416
34,0.0097751703
35,0.0195503416
36,0.0097751703
37,0.0097751703
38,0.0097751703
39,0.0097751703
40,0.0097751703
41,0.0097751703
42,0.0097751703
43,0.0195503416
44,0.0195503416
45,0.0195503416
46,0.0195503416
47,0.0293255119
48,0.0195503416
49,0.0293255119
50,0.0195503416
51,0.0293255119
52,0.0195503416
53,0.0195503416
54,0.0293255119
55,0.0293255119
56,0.0195503416
57,0.0293255119
58,0.0195503416
59,0.0293255119
60,0.0293255119
61,0.0293255119
62,0.0195503416
63,0.0195503416
64,0.0195503416
65,0.0293255119
66,0.0293255119
67,0.0391006832
68,0.0391006832
69,0.0391006832
70,0.0684261989
71,0.0586510229
72,0.0488758516
73,0.0488758516
74,0.0586510229
75,0.0488758516
76,0.0488758516
77,0.0586510229
78,0.0586510229
79,0.0879765415
80,0.1075268864
81,0.1173020482
82,0.1270772218
83,0.1173020482
84,0.1759530782
85,0.1759530782
86,0.1759530782
87,0.1759530782
88,0.1857282543
89,0.1857282543
90,0.2248289346
91,0.2052785873
92,0.2052785873
93,0.2639296054
94,0.2737047910
95,0.2737047910
96,0.3030303001
97,0.3714565038
98,0.3616813421
99,0.3812316703
100,0.3616813421
101,0.4105571746
102,0.4496578693
103,0.4007820129
104,0.4007820129
105,0.4692081928
106,0.4398827075
107,0.4301075458
108,0.4105571746
109,0.3812316703
110,0.3714565038
111,0.3323558330
112,0.3323558330
113,0.2834799575
114,0.2834799575
115,0.2639296054
116,0.2541544437
117,0.2639296054
118,0.2737047910
119,0.2639296054
120,0.2541544437
121,0.2248289346
122,0.2052785873
123,0.2248289346
124,0.2052785873
125,0.1857282543
126,0.1759530782
127,0.1661779165
128,0.1368523955
129,0.1368523955
130,0.1270772218
131,0.1173020482
132,0.1075268864
133,0.0977517032
134,0.0879765415
135,0.0879765415
136,0.0879765415
137,0.0879765415
138,0.0977517032
139,0.0879765415
140,0.0879765415
141,0.0879765415
142,0.1075268864
143,0.1075268864
144,0.1270772218
145,0.1270772218
146,0.0977517032
147,0.0977517032
148,0.0977517032
149,0.0879765415
150,0.1075268864
151,0.1075268864
152,0.0879765415
153,0.0782013654
154,0.0977517032
155,0.0782013654
156,0.0684261989
157,0.0684261989
158,0.0684261989
159,0.0586510229
160,0.0488758516
161,0.0391006832
162,0.0293255119
163,0.0293255119
164,0.0293255119
165,0.0293255119
166,0.0293255119
167,0.0391006832
168,0.0293255119
169,0.0293255119
170,0.0391006832
171,0.0488758516
172,0.0684261989
173,0.0879765415
174,0.1270772218
175,0.1466275596
176,0.2443792819
177,0.2737047910
178,0.3225806236
179,0.4203323364
180,0.5083088874
181,0.5962854385
182,0.6744868278
183,0.7526881694
184,0.8211143493
185,0.8211143493
186,0.8602150917
187,0.7624633312
188,0.7429130077
189,0.8993157386
190,0.9677418708
191,0.9188660621
192,0.9384163856
193,0.8504399299
194,0.7526881694
195,0.6647116661
196,0.5962854385
197,0.5571847438
198,0.5278592109
199,0.5767350673
200,0.5083088874
201,0.4594330310
202,0.4105571746
203,0.3714565038
204,0.3421309947
205,0.3225806236
206,0.3910068321
207,0.4203323364
208,0.4007820129
209,0.3421309947
210,0.3225806236
211,0.3225806236
212,0.3323558330
213,0.3030303001
214,0.3323558330
215,0.3812316703
216,0.3616813421
217,0.3225806236
218,0.2834799575
219,0.3225806236
220,0.3225806236
221,0.3030303001
222,0.2834799575
223,0.2443792819
224,0.2346040964
225,0.2248289346
226,0.2248289346
227,0.2052785873
228,0.2052785873
229,0.2150537729
230,0.2150537729
231,0.2248289346
232,0.2346040964
233,0.2443792819
234,0.2052785873
235,0.1759530782
236,0.1955034160
237,0.2346040964
238,0.3030303001
239,0.2639296054
240,0.2150537729
241,0.2052785873
242,0.2150537729
243,0.2443792819
244,0.2541544437
245,0.2150537729
246,0.2052785873
247,0.2346040964
248,0.2150537729
249,0.2150537729
250,0.2052785873
251,0.1857282543
252,0.1564027309
253,0.1564027309
254,0.1368523955
255,0.1368523955
256,0.1075268864
257,0.0977517032
258,0.1270772218
259,0.1955034160
260,0.1661779165
261,0.1368523955
262,0.1173020482
263,0.0977517032
264,0.0879765415
265,0.0879765415
266,0.0879765415
267,0.0879765415
268,0.0684261989
269,0.0586510229
270,0.0488758516
271,0.0782013654
272,0.0684261989
273,0.0684261989
274,0.0977517032
275,0.0879765415
276,0.1173020482
277,0.1270772218
278,0.1466275596
279,0.1368523955
280,0.1466275596
281,0.1368523955
282,0.1564027309
283,0.1466275596
284,0.1661779165
285,0.1857282543
286,0.1857282543
287,0.2248289346
288,0.2639296054
289,0.3128054618
290,0.3714565038
291,0.4301075458
292,0.4985337257
293,0.4594330310
294,0.4985337257
295,0.4789833545
296,0.4496578693
297,0.4398827075
298,0.4789833545
299,0.4496578693
300,0.3812316703
301,0.3519061565
302,0.3519061565
303,0.3323558330
304,0.3128054618
305,0.3225806236
306,0.3225806236
307,0.4007820129
308,0.3910068321
309,0.3910068321
310,0.4105571746
311,0.4301075458
312,0.3812316703
313,0.3910068321
314,0.3910068321
315,0.3519061565
316,0.3421309947
317,0.3030303001
318,0.2834799575
319,0.2443792819
320,0.2443792819
321,0.2443792819
322,0.2737047910
323,0.2737047910
324,0.2541544437
325,0.2443792819
326,0.2541544437
327,0.2443792819
328,0.2346040964
329,0.2443792819
330,0.2639296054
331,0.2443792819
332,0.2248289346
333,0.2052785873
334,0.1955034160
335,0.2541544437
336,0.2443792819
337,0.2150537729
338,0.1955034160
339,0.2052785873
340,0.2639296054
341,0.2443792819
342,0.2248289346
343,0.1955034160
344,0.1661779165
345,0.1759530782
346,0.1759530782
347,0.1564027309
348,0.1270772218
349,0.1173020482
350,0.1075268864
351,0.1075268864
352,0.1075268864
353,0.1075268864
354,0.0977517032
355,0.0879765415
356,0.0782013654
357,0.0782013654
358,0.0879765415
359,0.0782013654
360,0.0879765415
361,0.0782013654
362,0.0684261989
363,0.0684261989
364,0.0586510229
365,0.0782013654
366,0.0684261989
367,0.0684261989
368,0.0586510229
369,0.0586510229
370,0.0586510229
371,0.0586510229
372,0.0586510229
373,0.0488758516
374,0.0391006832
375,0.0391006832
376,0.0391006832
377,0.0391006832
378,0.0488758516
379,0.0488758516
380,0.0586510229
381,0.0488758516
382,0.0391006832
383,0.0293255119
384,0.0391006832
385,0.0293255119
386,0.0391006832
387,0.0586510229
388,0.0782013654
389,0.0977517032
390,0.1075268864
391,0.1075268864
392,0.1368523955
393,0.1661779165
394,0.2052785873
395,0.1955034160
396,0.2834799575
397,0.2639296054
398,0.2541544437
399,0.2737047910
400,0.3323558330
401,0.3323558330
402,0.4398827075
403,0.4594330310
404,0.4985337257
405,0.4985337257
406,0.5571847438
407,0.5865102291
408,0.5767350673
409,0.5865102291
410,0.5962854385
411,0.6451612472
412,0.6842619895
413,0.7233626842
414,0.8015640258
415,0.8113391876
416,0.7820136547
417,0.7038123130
418,0.6353860855
419,0.5669599056
420,0.5962854385
421,0.6158357620
422,0.5376344203
423,0.4887585639
424,0.4398827075
425,0.4398827075
426,0.4203323364
427,0.3910068321
428,0.3519061565
429,0.3616813421
430,0.4301075458
431,0.4203323364
432,0.3812316703
433,0.3812316703
434,0.3421309947
435,0.3421309947
436,0.3519061565
437,0.3225806236
438,0.3421309947
439,0.3128054618
440,0.3421309947
441,0.3323558330
442,0.3128054618
443,0.2737047910
444,0.2639296054
445,0.2737047910
446,0.3030303001
447,0.3030303001
448,0.2737047910
449,0.2932551193
450,0.3519061565
451,0.3128054618
452,0.2932551193
453,0.2443792819
454,0.2346040964
455,0.2052785873
456,0.2052785873
457,0.1857282543
458,0.1661779165
459,0.1857282543
460,0.1857282543
461,0.1857282543
462,0.1661779165
463,0.1857282543
464,0.1661779165
465,0.1661779165
466,0.1368523955
467,0.1270772218
468,0.1564027309
469,0.1270772218
470,0.1173020482
471,0.1075268864
472,0.0977517032
473,0.0879765415
474,0.0879765415
475,0.0879765415
476,0.0977517032
477,0.0879765415
478,0.0879765415
479,0.0879765415
480,0.0879765415
481,0.0782013654
482,0.0684261989
483,0.0586510229
484,0.0488758516
485,0.0488758516
486,0.0391006832
487,0.0488758516
488,0.0586510229
489,0.0488758516
490,0.0488758516
491,0.0684261989
492,0.0586510229
493,0.0488758516
494,0.0391006832
495,0.0488758516
496,0.0488758516
497,0.0391006832
498,0.0391006832
499,0.0391006832
500,0.0195503416
501,0.0195503416
502,0.0195503416
503,0.0293255119
504,0.0293255119
505,0.0195503416
506,0.0293255119
507,0.0293255119
508,0.0391006832
509,0.0391006832
510,0.0586510229
511,0.0684261989
512,0.0879765415
513,0.1075268864
514,0.1564027309
515,0.1759530782
516,0.2541544437
517,0.2737047910
518,0.3128054618
519,0.3616813421
520,0.4105571746
521,0.4594330310
522,0.4985337257
523,0.5180840492
524,0.5376344203
525,0.5376344203
526,0.5278592109
527,0.5180840492
528,0.5865102291
529,0.6451612472
530,0.5669599056
531,0.5865102291
532,0.6451612472
533,0.6451612472
534,0.6647116661
535,0.5962854385
536,0.5474095821
537,0.5571847438
538,0.5669599056
539,0.6256109237
540,0.6647116661
541,0.5962854385
542,0.5962854385
543,0.5865102291
544,0.5962854385
545,0.5669599056
546,0.5083088874
547,0.4496578693
548,0.4203323364
549,0.3910068321
550,0.3519061565
551,0.3519061565
552,0.3714565038
553,0.4496578693
554,0.4105571746
555,0.4203323364
556,0.3812316703
557,0.4398827075
558,0.5180840492
559,0.4398827075
560,0.3616813421
561,0.3323558330
562,0.3030303001
563,0.2932551193
564,0.2541544437
565,0.2248289346
566,0.2443792819
567,0.2541544437
568,0.2443792819
569,0.1955034160
570,0.1857282543
571,0.2150537729
572,0.2443792819
573,0.2150537729
574,0.1759530782
575,0.1564027309
576,0.1661779165
577,0.1661779165
578,0.1661779165
579,0.1466275596
580,0.1368523955
581,0.1368523955
582,0.1368523955
583,0.1466275596
584,0.1270772218
585,0.1173020482
586,0.1173020482
587,0.1173020482
588,0.1075268864
589,0.0977517032
590,0.0977517032
591,0.0977517032
592,0.1075268864
593,0.0977517032
594,0.1075268864
595,0.0879765415
596,0.0782013654
597,0.0879765415
598,0.0879765415
599,0.0782013654
600,0.0684261989
601,0.0586510229
602,0.0684261989
603,0.0684261989
604,0.0782013654
605,0.0684261989
606,0.0684261989
607,0.0684261989
608,0.0684261989
609,0.0488758516
610,0.0391006832
611,0.0391006832
612,0.0391006832
613,0.0391006832
614,0.0488758516
615,0.0488758516
616,0.0488758516
617,0.0488758516
618,0.0391006832
619,0.0293255119
620,0.0391006832
621,0.0391006832
622,0.0293255119
623,0.0391006832
624,0.0293255119
625,0.0195503416
626,0.0293255119
627,0.0488758516
628,0.0684261989
629,0.0782013654
630,0.0977517032
631,0.1173020482
632,0.1368523955
633,0.1466275596
634,0.1368523955
635,0.2248289346
636,0.2541544437
637,0.2932551193
638,0.3030303001
639,0.2932551193
640,0.3128054618
641,0.3030303001
642,0.2834799575
643,0.2932551193
644,0.3128054618
645,0.3519061565
646,0.3812316703
647,0.4203323364
648,0.5278592109
649,0.5767350673
650,0.6353860855
651,0.6940371513
652,0.7917888641
653,0.7135874748
654,0.6647116661
655,0.7429130077
656,0.7429130077
657,0.7526881694
658,0.7038123130
659,0.6744868278
660,0.7331378459
661,0.6549364089
662,0.6060606002
663,0.6353860855
664,0.5767350673
665,0.4985337257
666,0.4398827075
667,0.4203323364
668,0.3714565038
669,0.3812316703
670,0.3812316703
671,0.3714565038
672,0.4007820129
673,0.3910068321
674,0.3812316703
675,0.3421309947
676,0.3225806236
677,0.3128054618
678,0.3030303001
679,0.3030303001
680,0.3519061565
681,0.3225806236
682,0.2932551193
683,0.2834799575
684,0.3030303001
685,0.3225806236
686,0.3323558330
687,0.3128054618
688,0.3128054618
689,0.2834799575
690,0.2541544437
691,0.2541544437
692,0.2932551193
693,0.3030303001
694,0.3030303001
695,0.2639296054
696,0.2248289346
697,0.2150537729
698,0.2150537729
699,0.2052785873
700,0.1955034160
701,0.1661779165
702,0.1661779165
703,0.1661779165
704,0.1564027309
705,0.1661779165
706,0.1661779165
707,0.1466275596
708,0.1270772218
709,0.1173020482
710,0.1270772218
711,0.1368523955
712,0.1270772218
713,0.1173020482
714,0.1075268864
715,0.0977517032
716,0.0782013654
717,0.0977517032
718,0.0879765415
719,0.0977517032
720,0.0879765415
721,0.0879765415
722,0.0684261989
723,0.0782013654
724,0.0977517032
725,0.0879765415
726,0.0879765415
727,0.0782013654
728,0.0684261989
729,0.0586510229
730,0.0488758516
731,0.0488758516
732,0.0391006832
733,0.0391006832
734,0.0488758516
735,0.0586510229
736,0.0586510229
737,0.0586510229
738,0.0782013654
739,0.0782013654
740,0.0684261989
741,0.0586510229
742,0.0684261989
743,0.0684261989
744,0.0684261989
745,0.0684261989
746,0.0977517032
747,0.1368523955
748,0.1661779165
749,0.1759530782
750,0.1759530782
751,0.2443792819
752,0.2248289346
753,0.2346040964
754,0.2737047910
755,0.2541544437
756,0.2932551193
757,0.2639296054
758,0.3030303001
759,0.3128054618
760,0.3225806236
761,0.3519061565
762,0.3910068321
763,0.4105571746
764,0.4007820129
765,0.4203323364
766,0.5865102291
767,0.7820136547
768,0.7429130077
769,0.7135874748
770,0.7429130077
771,0.7429130077
772,0.7135874748
773,0.7722384929
774,0.7429130077
775,0.6744868278
776,0.5865102291
777,0.6158357620
778,0.5962854385
779,0.5865102291
780,0.6060606002
781,0.5767350673
782,0.5376344203
783,0.5865102291
784,0.5474095821
785,0.4887585639
786,0.5180840492
787,0.4985337257
788,0.5180840492
789,0.4985337257
790,0.4398827075
791,0.3910068321
792,0.4007820129
793,0.4887585639
794,0.4594330310
795,0.4398827075
796,0.4301075458
797,0.4203323364
798,0.4594330310
799,0.4203323364
800,0.3616813421
801,0.4007820129
802,0.4007820129
803,0.4007820129
804,0.3714565038
805,0.3616813421
806,0.3910068321
807,0.3519061565
808,0.3225806236
809,0.2932551193
810,0.2639296054
811,0.2834799575
812,0.2639296054
813,0.2541544437
814,0.2248289346
815,0.2248289346
816,0.2052785873
817,0.1955034160
818,0.1857282543
819,0.1564027309
820,0.1955034160
821,0.1857282543
822,0.1857282543
823,0.1759530782
824,0.1857282543
825,0.2150537729
826,0.2052785873
827,0.1955034160
828,0.1759530782
829,0.1857282543
830,0.1955034160
831,0.2052785873
832,0.2248289346
833,0.2052785873
834,0.1955034160
835,0.1564027309
836,0.1661779165
837,0.1955034160
838,0.1955034160
839,0.1857282543
840,0.1759530782
841,0.1661779165
842,0.1564027309
843,0.1466275596
844,0.1466275596
845,0.1368523955
846,0.1173020482
847,0.0977517032
848,0.1075268864
849,0.1173020482
850,0.1075268864
851,0.1075268864
852,0.0977517032
853,0.0879765415
854,0.0879765415
855,0.1368523955
856,0.1270772218
857,0.1075268864
858,0.0977517032
859,0.1270772218
860,0.1466275596
861,0.1270772218
862,0.1270772218
863,0.0977517032
864,0.1270772218
865,0.1368523955
866,0.1661779165
867,0.1466275596
868,0.1270772218
869,0.1173020482
870,0.1270772218
871,0.1173020482
872,0.1173020482
873,0.0977517032
874,0.1173020482
875,0.1270772218
876,0.1466275596
877,0.1368523955
878,0.1466275596
879,0.1564027309
880,0.1759530782
881,0.1466275596
882,0.1368523955
883,0.1564027309
884,0.1564027309
885,0.1466275596
886,0.1661779165
887,0.1759530782
888,0.1661779165
889,0.1661779165
890,0.1661779165
891,0.1759530782
892,0.1661779165
893,0.1857282543
894,0.2150537729
895,0.2052785873
896,0.1955034160
897,0.2248289346
898,0.3030303001
899,0.3225806236
900,0.3421309947
901,0.3616813421
902,0.4203323364
903,0.4007820129
904,0.4692081928
905,0.4301075458
906,0.4203323364
907,0.4301075458
908,0.4692081928
909,0.4398827075
910,0.4692081928
911,0.4887585639
912,0.4985337257
913,0.4789833545
914,0.5278592109
915,0.5767350673
916,0.5474095821
917,0.4887585639
918,0.5571847438
919,0.5865102291
920,0.5865102291
921,0.5767350673
922,0.5767350673
923,0.5865102291
924,0.5180840492
925,0.5083088874
926,0.5278592109
927,0.5278592109
928,0.4887585639
929,0.4594330310
930,0.4692081928
931,0.4594330310
932,0.4985337257
933,0.4789833545
934,0.4496578693
935,0.4594330310
936,0.4105571746
937,0.3910068321
938,0.4105571746
939,0.4007820129
940,0.4105571746
941,0.3910068321
942,0.3714565038
943,0.3616813421
944,0.3225806236
945,0.2834799575
946,0.3421309947
947,0.3519061565
948,0.3128054618
949,0.2737047910
950,0.2639296054
951,0.2541544437
952,0.2737047910
953,0.2834799575
954,0.2541544437
955,0.2248289346
956,0.2443792819
957,0.2443792819
958,0.2541544437
959,0.2150537729
960,0.2052785873
961,0.1955034160
962,0.1955034160
963,0.1661779165
964,0.1661779165
965,0.1661779165
966,0.2541544437
967,0.2150537729
968,0.1857282543
969,0.1759530782
970,0.1564027309
971,0.1661779165
972,0.1564027309
973,0.1466275596
974,0.1466275596
975,0.1368523955
976,0.1466275596
977,0.1466275596
978,0.1368523955
979,0.1759530782
980,0.1466275596
981,0.1368523955
982,0.1270772218
983,0.1270772218
984,0.1075268864
985,0.0977517032
986,0.0782013654
987,0.0977517032
988,0.1075268864
989,0.1075268864
990,0.1173020482
991,0.0977517032
992,0.0879765415
993,0.0879765415
994,0.0977517032
995,0.0977517032
996,0.0879765415
997,0.0782013654
998,0.0684261989
999,0.0684261989
1000,0.0782013654
1001,1.0459432601
1002,0.8211143493
1003,0.6549364089
1004,0.5278592109
1005,0.4203323364
1006,0.3323558330
1007,0.2639296054
1008,0.2150537729
1009,0.1759530782
1010,0.1466275596
1011,0.1173020482
1012,0.0977517032
1013,0.0684261989
1014,0.0586510229
1015,0.0488758516
1016,0.0488758516
1017,0.0391006832
1018,0.0293255119
1019,0.0293255119
1020,0.0391006832
1021,0.0293255119
1022,0.0195503416
1023,0.0195503416
1024,0.0195503416
1025,0.0195503416
1026,0.0293255119
1027,0.0195503416
1028,0.0195503416
1029,0.0195503416
1030,0.0097751703
1031,0.0097751703
1032,0.0097751703
1033,0.0097751703
1034,0.0195503416
1035,0.0195503416
1036,0.0195503416
1037,0.0097751703
1038,0.0195503416
1039,0.0195503416
1040,0.0195503416
1041,0.0195503416
1042,0.0195503416
1043,0.0195503416
1044,0.0195503416
1045,0.0195503416
1046,0.0195503416
1047,0.0097751703
1048,0.0097751703
1049,0.0097751703
1050,0.0097751703
1051,0.0097751703
1052,0.0097751703
1053,0.0097751703
1054,0.0097751703
1055,0.0097751703
1056,0.0097751703
1057,0.0097751703
1058,0.0097751703
1059,0.0097751703
1060,0.0097751703
1061,0.0097751703
1062,0.0097751703
1063,0.0097751703
1064,0.0097751703
1065,0.0195503416
1066,0.0097751703
1067,0.0097751703
1068,0.0097751703
1069,0.0097751703
1070,0.0097751703
1071,0.0097751703
1072,0.0097751703
1073,0.0097751703
1074,0.0097751703
1075,0.0097751703
1076,0.0097751703
1077,0.0097751703
1078,0.0097751703
1079,0.0097751703
1080,0.0097751703
1081,0.0097751703
1082,0.0097751703
1083,0.0097751703
1084,0.0097751703
1085,0.0097751703
1086,0.0097751703
1087,0.0097751703
1088,0.0097751703
1089,0.0097751703
1090,0.0097751703
1091,0.0097751703
1092,0.0097751703
1093,0.0097751703
1094,0.0195503416
1095,0.0097751703
1096,0.0195503416
1097,0.0097751703
1098,0.0195503416
1099,0.0195503416
1100,0.0195503416
1101,0.0195503416
1102,0.0195503416
1103,0.0195503416
1104,0.0195503416
1105,0.0195503416
1106,0.0195503416
1107,0.0195503416
1108,0.0097751703
1109,0.0195503416
1110,0.0097751703
1111,0.0097751703
1112,0.0097751703
1113,0.0097751703
1114,0.0097751703
1115,0.0097751703
1116,0.0097751703
1117,0.0195503416
1118,0.0097751703
1119,0.0097751703
1120,0.0097751703
1121,0.0097751703
1122,0.0097751703
1123,0.0195503416
1124,0.0195503416
1125,0.0195503416
1126,0.0195503416
1127,0.0195503416
1128,0.0195503416
1129,0.0097751703
1130,0.0195503416
1131,0.0097751703
1132,0.0097751703
1133,0.0097751703
1134,0.0097751703
1135,0.0097751703
1136,0.0097751703
1137,0.0097751703
1138,0.0097751703
1139,0.0097751703
1140,0.0097751703
1141,0.0097751703
1142,0.0097751703
1143,0.0097751703
1144,0.0097751703
1145,0.0097751703
1146,0.0195503416
1147,0.0097751703
1148,0.0293255119
1149,0.0097751703
1150,0.0097751703
1151,0.0097751703
1152,0.0097751703
1153,0.0097751703
1154,0.0097751703
1155,0.0097751703
1156,0.0097751703
1157,0.0097751703
1158,0.0097751703
1159,0.0195503416
1160,0.0097751703
1161,0.0097751703
1162,0.0097751703
1163,0.0097751703
1164,0.0097751703
1165,0.0097751703
1166,0.0097751703
1167,0.0097751703
1168,0.0097751703
1169,0.0097751703
1170,0.0097751703
1171,0.0097751703
1172,0.0195503416
1173,0.0097751703
1174,0.0097751703
1175,0.0097751703
1176,0.0097751703
1177,0.0097751703
1178,0.0097751703
1179,0.0097751703
1180,0.0097751703
1181,0.0097751703
1182,0.0195503416
1183,0.0097751703
1184,0.0097751703
1185,0.0097751703
1186,0.0097751703
1187,0.0097751703
1188,0.0097751703
1189,0.0097751703
1190,0.0097751703
1191,0.0097751703
1192,0.0097751703
1193,0.0097751703
1194,0.0097751703
1195,0.0097751703
1196,0.0097751703
1197,0.0195503416
1198,0.0195503416
1199,0.0195503416
1200,0.0097751703
1201,0.0097751703
1202,0.0097751703
1203,0.0097751703
1204,0.0097751703
1205,0.0097751703
1206,0.0097751703
1207,0.0097751703
1208,0.0097751703
1209,0.0097751703
1210,0.0097751703
1211,0.0097751703
1212,0.0097751703
1213,0.0097751703
1214,0.0097751703
1215,0.0097751703
1216,0.0195503416
1217,0.0195503416
1218,0.0195503416
1219,0.0293255119
1220,0.0195503416
1221,0.0195503416
1222,0.0195503416
1223,0.0097751703
1224,0.0097751703
1225,0.0097751703
1226,0.0097751703
1227,0.0097751703
1228,0.0097751703
1229,0.0097751703
1230,0.0097751703
1231,0.0097751703
1232,0.0097751703
1233,0.0097751703
1234,0.0097751703
1235,0.0097751703
1236,0.0097751703
1237,0.0097751703
1238,0.0097751703
1239,0.0097751703
1240,0.0097751703
1241,0.0097751703
1242,0.0097751703
1243,0.0097751703
1244,0.0097751703
1245,0.0097751703
1246,0.0195503416
1247,0.0195503416
1248,0.0195503416
1249,0.0195503416
1250,0.0195503416
1251,0.0097751703
1252,0.0097751703
1253,0.0097751703
1254,0.0097751703
1255,0.0097751703
1256,0.0097751703
1257,0.0195503416
1258,0.0195503416
1259,0.0195503416
1260,0.0195503416
1261,0.0195503416
1262,0.0097751703
1263,0.0097751703
1264,0.0097751703
1265,0.0097751703
1266,0.0195503416
1267,0.0097751703
1268,0.0097751703
1269,0.0097751703
1270,0.0097751703
1271,0.0097751703
1272,0.0097751703
1273,0.0097751703
1274,0.0097751703
1275,0.0097751703
1276,0.0097751703
1277,0.0097751703
1278,0.0097751703
1279,0.0097751703
1280,0.0097751703
1281,0.0097751703
1282,0.0097751703
1283,0.0097751703
1284,0.0097751703
1285,0.0097751703
1286,0.0000000000
1287,0.0097751703
1288,0.0097751703
1289,0.0195503416
1290,0.0097751703
1291,0.0097751703
1292,0.0097751703
1293,0.0097751703
1294,0.0097751703
1295,0.0097751703
1296,0.0097751703
1297,0.0097751703
1298,0.0097751703
1299,0.0097751703
1300,0.0097751703
1301,0.0097751703
1302,0.0293255119
1303,0.0293255119
1304,0.0293255119
1305,0.0488758516
1306,0.0391006832
1307,0.0488758516
1308,0.0586510229
1309,0.0586510229
1310,0.0684261989
1311,0.0586510229
1312,0.0684261989
1313,0.0684261989
1314,0.0586510229
1315,0.0684261989
1316,0.0684261989
1317,0.0684261989
1318,0.0684261989
1319,0.0782013654
1320,0.0879765415
1321,0.1075268864
1322,0.1466275596
1323,0.1368523955
1324,0.1270772218
1325,0.1075268864
1326,0.1075268864
1327,0.1270772218
1328,0.1075268864
1329,0.0879765415
1330,0.0879765415
1331,0.0782013654
1332,0.0684261989
1333,0.0586510229
1334,0.0586510229
1335,0.0488758516
1336,0.0488758516
1337,0.0488758516
1338,0.0488758516
1339,0.0488758516
1340,0.0684261989
1341,0.0586510229
1342,0.0586510229
1343,0.0488758516
1344,0.0391006832
1345,0.0293255119
1346,0.0293255119
1347,0.0293255119
1348,0.0293255119
1349,0.0195503416
1350,0.0195503416
1351,0.0195503416
1352,0.0097751703
1353,0.0195503416
1354,0.0097751703
1355,0.0195503416
1356,0.0195503416
1357,0.0195503416
1358,0.0195503416
1359,0.0195503416
1360,0.0195503416
1361,0.0195503416
1362,0.0195503416
1363,0.0195503416
1364,0.0195503416
1365,0.0195503416
1366,0.0097751703
1367,0.0195503416
1368,0.0195503416
1369,0.0195503416
1370,0.0195503416
1371,0.0195503416
1372,0.0097751703
1373,0.0097751703
1374,0.0195503416
1375,0.0097751703
1376,0.0097751703
1377,0.0097751703
1378,0.0097751703
1379,0.0097751703
1380,0.0195503416
1381,0.0097751703
1382,0.0097751703
1383,0.0097751703
1384,0.0097751703
1385,0.0097751703
1386,0.0097751703
1387,0.0097751703
1388,0.0097751703
1389,0.0097751703
1390,0.0097751703
1391,0.0097751703
1392,0.0097751703
1393,0.0097751703
1394,0.0097751703
1395,0.0097751703
1396,0.0097751703
1397,0.0097751703
1398,0.0097751703
1399,0.0097751703
1400,0.0097751703
1401,0.0097751703
1402,0.0097751703
1403,0.0097751703
1404,0.0097751703
1405,0.0097751703
1406,0.0097751703
1407,0.0097751703
1408,0.0097751703
1409,0.0097751703
1410,0.0097751703
1411,0.0097751703
1412,0.0097751703
1413,0.0097751703
1414,0.0097751703
1415,0.0097751703
1416,0.0097751703
1417,0.0097751703
1418,0.0097751703
1419,0.0097751703
1420,0.0097751703
1421,0.0097751703
1422,0.0097751703
1423,0.0097751703
1424,0.0097751703
1425,0.0097751703
1426,0.0097751703
1427,0.0097751703
1428,0.0097751703
1429,0.0097751703
1430,0.0097751703
1431,0.0097751703
1432,0.0097751703
1433,0.0097751703
1434,0.0097751703
1435,0.0097751703
1436,0.0097751703
1437,0.0097751703
1438,0.0097751703
1439,0.0195503416
1440,0.0097751703
1441,0.0097751703
1442,0.0097751703
1443,0.0097751703
1444,0.0097751703
1445,0.0097751703
1446,0.0097751703
1447,0.0097751703
1448,0.0097751703
1449,0.0097751703
1450,0.0097751703
1451,0.0097751703
1452,0.0000000000
1453,0.0097751703
1454,0.0097751703
1455,0.0097751703
1456,0.0000000000
1457,0.0097751703
1458,0.0097751703
1459,0.0097751703
1460,0.0097751703
1461,0.0097751703
1462,0.0195503416
1463,0.0195503416
1464,0.0293255119
1465,0.0195503416
1466,0.0195503416
1467,0.0195503416
1468,0.0195503416
1469,0.0195503416
1470,0.0195503416
1471,0.0097751703
1472,0.0097751703
1473,0.0097751703
1474,0.0097751703
1475,0.0097751703
1476,0.0097751703
1477,0.0097751703
1478,0.0097751703
1479,0.0097751703
1480,0.0097751703
1481,0.0097751703
1482,0.0195503416
1483,0.0097751703
1484,0.0097751703
1485,0.0195503416
1486,0.0097751703
1487,0.0195503416
1488,0.0195503416
1489,0.0097751703
1490,0.0097751703
1491,0.0195503416
1492,0.0097751703
1493,0.0097751703
1494,0.0195503416
1495,0.0097751703
1496,0.0097751703
1497,0.0195503416
1498,0.0195503416
1499,0.0097751703
1500,0.0097751703
1501,0.0195503416
1502,0.0097751703
1503,0.0097751703
1504,0.0097751703
1505,0.0097751703
1506,0.0097751703
1507,0.0097751703
1508,0.0097751703
1509,0.0097751703
1510,0.0097751703
1511,0.0097751703
1512,0.0097751703
1513,0.0097751703
1514,0.0097751703
1515,0.0097751703
1516,0.0097751703
1517,0.0097751703
1518,0.0097751703
1519,0.0097751703
1520,0.0097751703
1521,0.0097751703
1522,0.0097751703
1523,0.0097751703
1524,0.0097751703
1525,0.0097751703
1526,0.0097751703
1527,0.0097751703
1528,0.0097751703
1529,0.0097751703
1530,0.0097751703
1531,0.0097751703
1532,0.0097751703
1533,0.0097751703
1534,0.0097751703
1535,0.0097751703
1536,0.0097751703
1537,0.0097751703
1538,0.0097751703
1539,0.0097751703
1540,0.0097751703
1541,0.0097751703
1542,0.0097751703
1543,0.0097751703
1544,0.0097751703
1545,0.0097751703
1546,0.0097751703
1547,0.0097751703
1548,0.0097751703
1549,0.0097751703
1550,0.0097751703
1551,0.0097751703
1552,0.0097751703
1553,0.0097751703
1554,0.0097751703
1555,0.0097751703
1556,0.0097751703
1557,0.0097751703
1558,0.0097751703
1559,0.0195503416
1560,0.0097751703
1561,0.0097751703
1562,0.0097751703
1563,0.0097751703
1564,0.0097751703
1565,0.0097751703
1566,0.0097751703
1567,0.0097751703
1568,0.0097751703
1569,0.0195503416
1570,0.0195503416
1571,0.0195503416
1572,0.0195503416
1573,0.0097751703
1574,0.0097751703
1575,0.0097751703
1576,0.0097751703
1577,0.0097751703
1578,0.0097751703
1579,0.0195503416
1580,0.0195503416
1581,0.0195503416
1582,0.0195503416
1583,0.0195503416
1584,0.0195503416
1585,0.0195503416
1586,0.0097751703
1587,0.0195503416
1588,0.0195503416
1589,0.0195503416
1590,0.0097751703
1591,0.0097751703
1592,0.0097751703
1593,0.0097751703
1594,0.0097751703
1595,0.0195503416
1596,0.0097751703
1597,0.0097751703
1598,0.0097751703
1599,0.0195503416
1600,0.0195503416
1601,0.0195503416
1602,0.0097751703
1603,0.0097751703
1604,0.0097751703
1605,0.0097751703
1606,0.0097751703
1607,0.0097751703
1608,0.0097751703
1609,0.0097751703
1610,0.0097751703
1611,0.0097751703
1612,0.0097751703
1613,0.0097751703
1614,0.0097751703
1615,0.0097751703
1616,0.0097751703
1617,0.0097751703
1618,0.0195503416
1619,0.0097751703
1620,0.0097751703
1621,0.0097751703
1622,0.0097751703
1623,0.0097751703
1624,0.0097751703
1625,0.0097751703
1626,0.0097751703
1627,0.0097751703
1628,0.0097751703
1629,0.0097751703
1630,0.0097751703
1631,0.0097751703
1632,0.0097751703
1633,0.0097751703
1634,0.0097751703
1635,0.0097751703
1636,0.0097751703
1637,0.0097751703
1638,0.0097751703
1639,0.0097751703
1640,0.0097751703
1641,0.0097751703
1642,0.0097751703
1643,0.0097751703
1644,0.0097751703
1645,0.0097751703
1646,0.0097751703
1647,0.0097751703
1648,0.0097751703
1649,0.0097751703
1650,0.0097751703
1651,0.0097751703
1652,0.0097751703
1653,0.0097751703
1654,0.0195503416
1655,0.0195503416
1656,0.0097751703
1657,0.0097751703
1658,0.0097751703
1659,0.0097751703
1660,0.0195503416
1661,0.0195503416
1662,0.0097751703
1663,0.0097751703
1664,0.0097751703
1665,0.0097751703
1666,0.0195503416
1667,0.0195503416
1668,0.0097751703
1669,0.0097751703
1670,0.0097751703
1671,0.0195503416
1672,0.0097751703
1673,0.0195503416
1674,0.0195503416
1675,0.0195503416
1676,0.0195503416
1677,0.0293255119
1678,0.0195503416
1679,0.0195503416
1680,0.0195503416
1681,0.0195503416
1682,0.0195503416
1683,0.0195503416
1684,0.0195503416
1685,0.0097751703
1686,0.0195503416
1687,0.0097751703
1688,0.0097751703
1689,0.0195503416
1690,0.0097751703
1691,0.0195503416
1692,0.0195503416
1693,0.0195503416
1694,0.0097751703
1695,0.0097751703
1696,0.0195503416
1697,0.0293255119
1698,0.0195503416
1699,0.0195503416
1700,0.0391006832
1701,0.0391006832
1702,0.0586510229
1703,0.0586510229
1704,0.0488758516
1705,0.0488758516
1706,0.0488758516
1707,0.0488758516
1708,0.0488758516
1709,0.0488758516
1710,0.0488758516
1711,0.0488758516
1712,0.0488758516
1713,0.0586510229
1714,0.0586510229
1715,0.0586510229
1716,0.0586510229
1717,0.0586510229
1718,0.0586510229
1719,0.0586510229
1720,0.0586510229
1721,0.0586510229
1722,0.0586510229
1723,0.0488758516
1724,0.0488758516
1725,0.0586510229
1726,0.0488758516
1727,0.0488758516
1728,0.0488758516
1729,0.0488758516
1730,0.0488758516
1731,0.0488758516
1732,0.0586510229
1733,0.0488758516
1734,0.0488758516
1735,0.0488758516
1736,0.0488758516
1737,0.0488758516
1738,0.0488758516
1739,0.0488758516
1740,0.0488758516
1741,0.0488758516
1742,0.0488758516
1743,0.0488758516
1744,0.0391006832
1745,0.0391006832
1746,0.0488758516
1747,0.0488758516
1748,0.0488758516
1749,0.0488758516
1750,0.0391006832
1751,0.0488758516
1752,0.0391006832
1753,0.0391006832
1754,0.0293255119
1755,0.0488758516
1756,0.0293255119
1757,0.0293255119
1758,0.0293255119
1759,0.0293255119
1760,0.0293255119
1761,0.0391006832
1762,0.0293255119
1763,0.0293255119
1764,0.0391006832
1765,0.0293255119
1766,0.0391006832
1767,0.0293255119
1768,0.0293255119
1769,0.0293255119
1770,0.0293255119
1771,0.0293255119
1772,0.0293255119
1773,0.0293255119
1774,0.0391006832
1775,0.0391006832
1776,0.0488758516
1777,0.0488758516
1778,0.0488758516
1779,0.0586510229
1780,0.0782013654
1781,0.1075268864
1782,0.0977517032
1783,0.0977517032
1784,0.0977517032
1785,0.0879765415
1786,0.0782013654
1787,0.0684261989
1788,0.0879765415
1789,0.1075268864
1790,0.1075268864
1791,0.0977517032
1792,0.1173020482
1793,0.1270772218
1794,0.1466275596
1795,0.1368523955
1796,0.1270772218
1797,0.1466275596
1798,0.1270772218
1799,0.1270772218
1800,0.1075268864
1801,0.0879765415
1802,0.0782013654
1803,0.0684261989
1804,0.0586510229
1805,0.0586510229
1806,0.0488758516
1807,0.0586510229
1808,0.0488758516
1809,0.0586510229
1810,0.0586510229
1811,0.0782013654
1812,0.0782013654
1813,0.0782013654
1814,0.0879765415
1815,0.0782013654
1816,0.0782013654
1817,0.0586510229
1818,0.0586510229
1819,0.0586510229
1820,0.0488758516
1821,0.0488758516
1822,0.0488758516
1823,0.0586510229
1824,0.0488758516
1825,0.0586510229
1826,0.0488758516
1827,0.0586510229
1828,0.0488758516
1829,0.0391006832
1830,0.0391006832
1831,0.0391006832
1832,0.0391006832
1833,0.0293255119
1834,0.0293255119
1835,0.0293255119
1836,0.0293255119
1837,0.0293255119
1838,0.0195503416
1839,0.0195503416
1840,0.0195503416
1841,0.0195503416
1842,0.0195503416
1843,0.0195503416
1844,0.0195503416
1845,0.0195503416
1846,0.0293255119
1847,0.0293255119
1848,0.0195503416
1849,0.0195503416
1850,0.0195503416
1851,0.0195503416
1852,0.0293255119
1853,0.0195503416
1854,0.0097751703
1855,0.0195503416
1856,0.0097751703
1857,0.0195503416
1858,0.0195503416
1859,0.0097751703
1860,0.0097751703
1861,0.0097751703
1862,0.0097751703
1863,0.0097751703
1864,0.0097751703
1865,0.0097751703
1866,0.0097751703
1867,0.0097751703
1868,0.0097751703
1869,0.0097751703
1870,0.0097751703
1871,0.0097751703
1872,0.0097751703
1873,0.0097751703
1874,0.0097751703
1875,0.0195503416
1876,0.0097751703
1877,0.0097751703
1878,0.0097751703
1879,0.0195503416
1880,0.0195503416
1881,0.0195503416
1882,0.0195503416
1883,0.0195503416
1884,0.0195503416
1885,0.0195503416
1886,0.0195503416
1887,0.0195503416
1888,0.0195503416
1889,0.0195503416
1890,0.0097751703
1891,0.0097751703
1892,0.0097751703
1893,0.0097751703
1894,0.0195503416
1895,0.0195503416
1896,0.0195503416
1897,0.0195503416
1898,0.0195503416
1899,0.0195503416
1900,0.0195503416
1901,0.0195503416
1902,0.0195503416
1903,0.0195503416
1904,0.0195503416
1905,0.0195503416
1906,0.0195503416
1907,0.0293255119
1908,0.0195503416
1909,0.0195503416
1910,0.0195503416
1911,0.0195503416
1912,0.0195503416
1913,0.0097751703
1914,0.0195503416
1915,0.0097751703
1916,0.0097751703
1917,0.0195503416
1918,0.0195503416
1919,0.0293255119
1920,0.0195503416
1921,0.0293255119
1922,0.0293255119
1923,0.0195503416
1924,0.0293255119
1925,0.0097751703
1926,0.0097751703
1927,0.0195503416
1928,0.0195503416
1929,0.0195503416
1930,0.0195503416
1931,0.0195503416
1932,0.0195503416
1933,0.0195503416
1934,0.0195503416
1935,0.0195503416
1936,0.0195503416
1937,0.0195503416
1938,0.0195503416
1939,0.0195503416
1940,0.0195503416
1941,0.0195503416
1942,0.0195503416
1943,0.0195503416
1944,0.0195503416
1945,0.0195503416
1946,0.0195503416
1947,0.0195503416
1948,0.0195503416
1949,0.0097751703
1950,0.0097751703
1951,0.0097751703
1952,0.0097751703
1953,0.0195503416
1954,0.0195503416
1955,0.0097751703
1956,0.0195503416
1957,0.0097751703
1958,0.0097751703
1959,0.0097751703
1960,0.0195503416
1961,0.0097751703
1962,0.0195503416
1963,0.0195503416
1964,0.0097751703
1965,0.0195503416
1966,0.0195503416
1967,0.0195503416
1968,0.0097751703
1969,0.0097751703
1970,0.0097751703
1971,0.0097751703
1972,0.0195503416
1973,0.0097751703
1974,0.0097751703
1975,0.0097751703
1976,0.0097751703
1977,0.0097751703
1978,0.0097751703
1979,0.0097751703
1980,0.0097751703
1981,0.0097751703
1982,0.0097751703
1983,0.0097751703
1984,0.0097751703
1985,0.0097751703
1986,0.0097751703
1987,0.0097751703
1988,0.0097751703
1989,0.0097751703
1990,0.0097751703
1991,0.0097751703
1992,0.0097751703
1993,0.0195503416
1994,0.0195503416
1995,0.0195503416
1996,0.0195503416
1997,0.0097751703
1998,0.0097751703
1999,0.0097751703
2000,0.0293255119
2001,0.6842619895
2002,0.5962854385
2003,0.5180840492
2004,0.4789833545
2005,0.5278592109
2006,0.4496578693
2007,0.4789833545
2008,0.5083088874
2009,0.4301075458
2010,0.4203323364
2011,0.4398827075
2012,0.3812316703
2013,0.4007820129
2014,0.3421309947
2015,0.3128054618
2016,0.3616813421
2017,0.3616813421
2018,0.3225806236
2019,0.3225806236
2020,0.3421309947
2021,0.3812316703
2022,0.3421309947
2023,0.3812316703
2024,0.3616813421
2025,0.3225806236
2026,0.3030303001
2027,0.2932551193
2028,0.2834799575
2029,0.3030303001
2030,0.2737047910
2031,0.2932551193
2032,0.3030303001
2033,0.3128054618
2034,0.3421309947
2035,0.3030303001
2036,0.2932551193
2037,0.2834799575
2038,0.2834799575
2039,0.2443792819
2040,0.2248289346
2041,0.2150537729
2042,0.1955034160
2043,0.1661779165
2044,0.1564027309
2045,0.1466275596
2046,0.2052785873
2047,0.1759530782
2048,0.1564027309
2049,0.1368523955
2050,0.1466275596
2051,0.1173020482
2052,0.1075268864
2053,0.1075268864
2054,0.0977517032
2055,0.0879765415
2056,0.0879765415
2057,0.0782013654
2058,0.0684261989
2059,0.0684261989
2060,0.0684261989
2061,0.0879765415
2062,0.0879765415
2063,0.1075268864
2064,0.1173020482
2065,0.1466275596
2066,0.1466275596
2067,0.1955034160
2068,0.2541544437
2069,0.3128054618
2070,0.4203323364
2071,0.5767350673
2072,0.6451612472
2073,0.6549364089
2074,0.7233626842
2075,0.8406646728
2076,1.0361680984
2077,0.9872922897
2078,1.0654937028
2079,0.9970674514
2080,1.0752688646
2081,1.0361680984
2082,1.3294233083
2083,1.3196481466
2084,1.5835777282
2085,2.0821113586
2086,2.0723361968
2087,2.0332355499
2088,1.8670577049
2089,1.8181818962
2090,1.6813293457
2091,1.7302052974
2092,1.6031280517
2093,1.4076246261
2094,1.2609970569
2095,1.2218964099
2096,1.0948191833
2097,1.0361680984
2098,0.9677418708
2099,0.8406646728
2100,0.7917888641
2101,0.6647116661
2102,0.6158357620
2103,0.6060606002
2104,0.5376344203
2105,0.5571847438
2106,0.5474095821
2107,0.5571847438
2108,0.5865102291
2109,0.5571847438
2110,0.5571847438
2111,0.5767350673
2112,0.5278592109
2113,0.4985337257
2114,0.5767350673
2115,0.5571847438
2116,0.5278592109
2117,0.4887585639
2118,0.5474095821
2119,0.5180840492
2120,0.4985337257
2121,0.4985337257
2122,0.4692081928
2123,0.4985337257
2124,0.4789833545
2125,0.4789833545
2126,0.4594330310
2127,0.5278592109
2128,0.5376344203
2129,0.4594330310
2130,0.4985337257
2131,0.4985337257
2132,0.4301075458
2133,0.3910068321
2134,0.4203323364
2135,0.4398827075
2136,0.3910068321
2137,0.3519061565
2138,0.3812316703
2139,0.3323558330
2140,0.4398827075
2141,0.4105571746
2142,0.4105571746
2143,0.3714565038
2144,0.3714565038
2145,0.3812316703
2146,0.3225806236
2147,0.3421309947
2148,0.3225806236
2149,0.2932551193
2150,0.2737047910
2151,0.2443792819
2152,0.2443792819
2153,0.2248289346
2154,0.2443792819
2155,0.3225806236
2156,0.3225806236
2157,0.3030303001
2158,0.2932551193
2159,0.2541544437
2160,0.2248289346
2161,0.1955034160
2162,0.1955034160
2163,0.1857282543
2164,0.1661779165
2165,0.1564027309
2166,0.1466275596
2167,0.1368523955
2168,0.1368523955
2169,0.1270772218
2170,0.1270772218
2171,0.1173020482
2172,0.1173020482
2173,0.0977517032
2174,0.0879765415
2175,0.0879765415
2176,0.0977517032
2177,0.1075268864
2178,0.1075268864
2179,0.1173020482
2180,0.1270772218
2181,0.1173020482
2182,0.1661779165
2183,0.2052785873
2184,0.3225806236
2185,0.4692081928
2186,0.5865102291
2187,0.6451612472
2188,0.6549364089
2189,0.7820136547
2190,0.8699902534
2191,0.8699902534
2192,0.8895405769
2193,0.9286412239
2194,1.1827956390
2195,1.2023460865
2196,1.3294233083
2197,1.2512218952
2198,1.2218964099
2199,1.2218964099
2200,1.2218964099
2201,1.0654937028
2202,1.3782991170
2203,1.4565005302
2204,1.4271749496
2205,1.3196481466
2206,1.2023460865
2207,1.1730204820
2208,1.2316715717
2209,1.1730204820
2210,1.0557184219
2211,1.0166177749
2212,1.0166177749
2213,0.9970674514
2214,0.8504399299
2215,0.7526881694
2216,0.6940371513
2217,0.6744868278
2218,0.6451612472
2219,0.6353860855
2220,0.6451612472
2221,0.5962854385
2222,0.5767350673
2223,0.5571847438
2224,0.5767350673
2225,0.6647116661
2226,0.7624633312
2227,0.7624633312
2228,0.7233626842
2229,0.6842619895
2230,0.6744868278
2231,0.5962854385
2232,0.6060606002
2233,0.6451612472
2234,0.5962854385
2235,0.5767350673
2236,0.5865102291
2237,0.6451612472
2238,0.6353860855
2239,0.5865102291
2240,0.6060606002
2241,0.5571847438
2242,0.5180840492
2243,0.4985337257
2244,0.4985337257
2245,0.4692081928
2246,0.4594330310
2247,0.4985337257
2248,0.4594330310
2249,0.4301075458
2250,0.4398827075
2251,0.4887585639
2252,0.5180840492
2253,0.5083088874
2254,0.5278592109
2255,0.5083088874
2256,0.4496578693
2257,0.4203323364
2258,0.3812316703
2259,0.3519061565
2260,0.3030303001
2261,0.3519061565
2262,0.3323558330
2263,0.3421309947
2264,0.3421309947
2265,0.3128054618
2266,0.3421309947
2267,0.3323558330
2268,0.2834799575
2269,0.3030303001
2270,0.2932551193
2271,0.3128054618
2272,0.2932551193
2273,0.2541544437
2274,0.2639296054
2275,0.2443792819
2276,0.2248289346
2277,0.2248289346
2278,0.1955034160
2279,0.1661779165
2280,0.1661779165
2281,0.1564027309
2282,0.1759530782
2283,0.1661779165
2284,0.1759530782
2285,0.1759530782
2286,0.1661779165
2287,0.1955034160
2288,0.1857282543
2289,0.1759530782
2290,0.1759530782
2291,0.1661779165
2292,0.1661779165
2293,0.1466275596
2294,0.1368523955
2295,0.1368523955
2296,0.1466275596
2297,0.1466275596
2298,0.1955034160
2299,0.2052785873
2300,0.2346040964
2301,0.2639296054
2302,0.3323558330
2303,0.4301075458
2304,0.4398827075
2305,0.5962854385
2306,0.6549364089
2307,0.7820136547
2308,0.7624633312
2309,0.8895405769
2310,1.0068426132
2311,1.0166177749
2312,0.9286412239
2313,1.0557184219
2314,1.3294233083
2315,1.3782991170
2316,1.4369501113
2317,1.2805473804
2318,1.2805473804
2319,1.7497556209
2320,1.9941349029
2321,1.9843597412
2322,1.7399804592
2323,1.6813293457
2324,1.7008798122
2325,1.5835777282
2326,1.5640273094
2327,1.5640273094
2328,1.4369501113
2329,1.2512218952
2330,1.0948191833
2331,0.9286412239
2332,0.8993157386
2333,0.8113391876
2334,0.7429130077
2335,0.6353860855
2336,0.5767350673
2337,0.5376344203
2338,0.4789833545
2339,0.5083088874
2340,0.5571847438
2341,0.5376344203
2342,0.5571847438
2343,0.5278592109
2344,0.5180840492
2345,0.5669599056
2346,0.5865102291
2347,0.5571847438
2348,0.6256109237
2349,0.7722384929
2350,0.7526881694
2351,0.7135874748
2352,0.7429130077
2353,0.6549364089
2354,0.6842619895
2355,0.6647116661
2356,0.5767350673
2357,0.5278592109
2358,0.5180840492
2359,0.6256109237
2360,0.6842619895
2361,0.6158357620
2362,0.5669599056
2363,0.5278592109
2364,0.5083088874
2365,0.4692081928
2366,0.4203323364
2367,0.4496578693
2368,0.5083088874
2369,0.4692081928
2370,0.4105571746
2371,0.4496578693
2372,0.4105571746
2373,0.4301075458
2374,0.4887585639
2375,0.4398827075
2376,0.4007820129
2377,0.3910068321
2378,0.3519061565
2379,0.3323558330
2380,0.2932551193
2381,0.2932551193
2382,0.2639296054
2383,0.2639296054
2384,0.2639296054
2385,0.2346040964
2386,0.2052785873
2387,0.2052785873
2388,0.2052785873
2389,0.1955034160
2390,0.1857282543
2391,0.2052785873
2392,0.2150537729
2393,0.1759530782
2394,0.1661779165
2395,0.1661779165
2396,0.1661779165
2397,0.1270772218
2398,0.1270772218
2399,0.1368523955
2400,0.1368523955
2401,0.1368523955
2402,0.1173020482
2403,0.1075268864
2404,0.1075268864
2405,0.0977517032
2406,0.0879765415
2407,0.0879765415
2408,0.0782013654
2409,0.0782013654
2410,0.0879765415
2411,0.0879765415
2412,0.1075268864
2413,0.1270772218
2414,0.1857282543
2415,0.3030303001
2416,0.3225806236
2417,0.3714565038
2418,0.5083088874
2419,0.7722384929
2420,0.7722384929
2421,0.8504399299
2422,0.9286412239
2423,0.9286412239
2424,1.0068426132
2425,1.0850440216
2426,1.2023460865
2427,1.2023460865
2428,1.2316715717
2429,1.4076246261
2430,1.4369501113
2431,1.4369501113
2432,1.3489736318
2433,1.3000977039
2434,1.3782991170
2435,1.5347018241
2436,1.4076246261
2437,1.3880742835
2438,1.3685239553
2439,1.2512218952
2440,1.2316715717
2441,1.0459432601
2442,0.8504399299
2443,0.7624633312
2444,0.7135874748
2445,0.6353860855
2446,0.5669599056
2447,0.5278592109
2448,0.4789833545
2449,0.4887585639
2450,0.4496578693
2451,0.5571847438
2452,0.5669599056
2453,0.6451612472
2454,0.6940371513
2455,0.7233626842
2456,0.7233626842
2457,0.6744868278
2458,0.6549364089
2459,0.7429130077
2460,0.7135874748
2461,0.6353860855
2462,0.5669599056
2463,0.5376344203
2464,0.4985337257
2465,0.4789833545
2466,0.4789833545
2467,0.4887585639
2468,0.5278592109
2469,0.5083088874
2470,0.4985337257
2471,0.4301075458
2472,0.4105571746
2473,0.3910068321
2474,0.3910068321
2475,0.4496578693
2476,0.4398827075
2477,0.4496578693
2478,0.4203323364
2479,0.3812316703
2480,0.3910068321
2481,0.3616813421
2482,0.3030303001
2483,0.2932551193
2484,0.3421309947
2485,0.3128054618
2486,0.2737047910
2487,0.2834799575
2488,0.2737047910
2489,0.2443792819
2490,0.2346040964
2491,0.2150537729
2492,0.2052785873
2493,0.2150537729
2494,0.1759530782
2495,0.1955034160
2496,0.2052785873
2497,0.1759530782
2498,0.1857282543
2499,0.1857282543
2500,0.1661779165
2501,0.1857282543
2502,0.1857282543
2503,0.1759530782
2504,0.1661779165
2505,0.1661779165
2506,0.1466275596
2507,0.1270772218
2508,0.1368523955
2509,0.1368523955
2510,0.1368523955
2511,0.1368523955
2512,0.1173020482
2513,0.1270772218
2514,0.1173020482
2515,0.1368523955
2516,0.1270772218
2517,0.1466275596
2518,0.1270772218
2519,0.1270772218
2520,0.1466275596
2521,0.1564027309
2522,0.1857282543
2523,0.2248289346
2524,0.1955034160
2525,0.1759530782
2526,0.1759530782
2527,0.1955034160
2528,0.2443792819
2529,0.2737047910
2530,0.3812316703
2531,0.4301075458
2532,0.5962854385
2533,0.6158357620
2534,0.6647116661
2535,0.7722384929
2536,0.8406646728
2537,0.7917888641
2538,0.9188660621
2539,0.9481915473
2540,0.8699902534
2541,0.9775171279
2542,1.1143695116
2543,1.0948191833
2544,1.0263929367
2545,1.0850440216
2546,1.1143695116
2547,1.0557184219
2548,1.0752688646
2549,1.0459432601
2550,1.2609970569
2551,1.4076246261
2552,1.7008798122
2553,2.0039100646
2554,1.9061583518
2555,1.9941349029
2556,1.9061583518
2557,1.6422286987
2558,1.4760508537
2559,1.3391984701
2560,1.1143695116
2561,0.9188660621
2562,0.7917888641
2563,0.7135874748
2564,0.6158357620
2565,0.5474095821
2566,0.5278592109
2567,0.4789833545
2568,0.4985337257
2569,0.5278592109
2570,0.5376344203
2571,0.6647116661
2572,0.7331378459
2573,0.7135874748
2574,0.6647116661
2575,0.6842619895
2576,0.6744868278
2577,0.6353860855
2578,0.6549364089
2579,0.6256109237
2580,0.6451612472
2581,0.6060606002
2582,0.5865102291
2583,0.5180840492
2584,0.5669599056
2585,0.5474095821
2586,0.5865102291
2587,0.6256109237
2588,0.5669599056
2589,0.5083088874
2590,0.5571847438
2591,0.4985337257
2592,0.4594330310
2593,0.3910068321
2594,0.3519061565
2595,0.3616813421
2596,0.3616813421
2597,0.3128054618
2598,0.3225806236
2599,0.3030303001
2600,0.3616813421
2601,0.3323558330
2602,0.3421309947
2603,0.3519061565
2604,0.3421309947
2605,0.3030303001
2606,0.2932551193
2607,0.2834799575
2608,0.2737047910
2609,0.2443792819
2610,0.2052785873
2611,0.1955034160
2612,0.1857282543
2613,0.1759530782
2614,0.1564027309
2615,0.1466275596
2616,0.1564027309
2617,0.1661779165
2618,0.1466275596
2619,0.1368523955
2620,0.1368523955
2621,0.1270772218
2622,0.1075268864
2623,0.1075268864
2624,0.0879765415
2625,0.0879765415
2626,0.0782013654
2627,0.0782013654
2628,0.0782013654
2629,0.0782013654
2630,0.0879765415
2631,0.1075268864
2632,0.0977517032
2633,0.0782013654
2634,0.0684261989
2635,0.0782013654
2636,0.1075268864
2637,0.1173020482
2638,0.1466275596
2639,0.1564027309
2640,0.1857282543
2641,0.2834799575
2642,0.4007820129
2643,0.4789833545
2644,0.5278592109
2645,0.6158357620
2646,0.6744868278
2647,0.6647116661
2648,0.7233626842
2649,0.8308895111
2650,0.8895405769
2651,0.9188660621
2652,0.8602150917
2653,0.7722384929
2654,0.9775171279
2655,1.0166177749
2656,1.0263929367
2657,1.0263929367
2658,1.0557184219
2659,1.1632453203
2660,1.2218964099
2661,1.1534701585
2662,1.1534701585
2663,1.3685239553
2664,1.2805473804
2665,1.3196481466
2666,1.4076246261
2667,1.2218964099
2668,1.1730204820
2669,1.0850440216
2670,0.9384163856
2671,0.8699902534
2672,0.7820136547
2673,0.7135874748
2674,0.6256109237
2675,0.6647116661
2676,0.7233626842
2677,0.6842619895
2678,0.7135874748
2679,0.7135874748
2680,0.6647116661
2681,0.7429130077
2682,0.6647116661
2683,0.6451612472
2684,0.6158357620
2685,0.6549364089
2686,0.6353860855
2687,0.5571847438
2688,0.5376344203
2689,0.4887585639
2690,0.4789833545
2691,0.4692081928
2692,0.4594330310
2693,0.4594330310
2694,0.4594330310
2695,0.4398827075
2696,0.4203323364
2697,0.3910068321
2698,0.3519061565
2699,0.3421309947
2700,0.3323558330
2701,0.3323558330
2702,0.3128054618
2703,0.2834799575
2704,0.2834799575
2705,0.2834799575
2706,0.2443792819
2707,0.2737047910
2708,0.2737047910
2709,0.2834799575
2710,0.2639296054
2711,0.2248289346
2712,0.2541544437
2713,0.2248289346
2714,0.2052785873
2715,0.2150537729
2716,0.2150537729
2717,0.2052785873
2718,0.2150537729
2719,0.2150537729
2720,0.2248289346
2721,0.1955034160
2722,0.1661779165
2723,0.2150537729
2724,0.1857282543
2725,0.1661779165
2726,0.1564027309
2727,0.1564027309
2728,0.1368523955
2729,0.1270772218
2730,0.1270772218
2731,0.1270772218
2732,0.1173020482
2733,0.1075268864
2734,0.0977517032
2735,0.1368523955
2736,0.1270772218
2737,0.1173020482
2738,0.0977517032
2739,0.0782013654
2740,0.0684261989
2741,0.0782013654
2742,0.0879765415
2743,0.0782013654
2744,0.0782013654
2745,0.0684261989
2746,0.0684261989
2747,0.0586510229
2748,0.0879765415
2749,0.0879765415
2750,0.0977517032
2751,0.0879765415
2752,0.0977517032
2753,0.1075268864
2754,0.1173020482
2755,0.1270772218
2756,0.1564027309
2757,0.2052785873
2758,0.2248289346
2759,0.3128054618
2760,0.4301075458
2761,0.5767350673
2762,0.6647116661
2763,0.7722384929
2764,0.9384163856
2765,0.9384163856
2766,0.9970674514
2767,0.9579667091
2768,0.8797654151
2769,0.8699902534
2770,0.8797654151
2771,1.0361680984
2772,1.0948191833
2773,1.1339198350
2774,1.1730204820
2775,1.1730204820
2776,1.1827956390
2777,1.2805473804
2778,1.4760508537
2779,1.3196481466
2780,1.3391984701
2781,1.4173997879
2782,1.2316715717
2783,1.0948191833
2784,0.9677418708
2785,0.9579667091
2786,0.9090909004
2787,0.7624633312
2788,0.6256109237
2789,0.6353860855
2790,0.5865102291
2791,0.5571847438
2792,0.5278592109
2793,0.4789833545
2794,0.4594330310
2795,0.4692081928
2796,0.5376344203
2797,0.5278592109
2798,0.5767350673
2799,0.5474095821
2800,0.4887585639
2801,0.7233626842
2802,0.6647116661
2803,0.8015640258
2804,0.8504399299
2805,0.8895405769
2806,0.8504399299
2807,0.7624633312
2808,0.7135874748
2809,0.6842619895
2810,0.6158357620
2811,0.6842619895
2812,0.6842619895
2813,0.6647116661
2814,0.6647116661
2815,0.7135874748
2816,0.7038123130
2817,0.5962854385
2818,0.5669599056
2819,0.5278592109
2820,0.4985337257
2821,0.4594330310
2822,0.4203323364
2823,0.4105571746
2824,0.4007820129
2825,0.3714565038
2826,0.3323558330
2827,0.4301075458
2828,0.3812316703
2829,0.3519061565
2830,0.3128054618
2831,0.3030303001
2832,0.3421309947
2833,0.3323558330
2834,0.3128054618
2835,0.3030303001
2836,0.2834799575
2837,0.3030303001
2838,0.2639296054
2839,0.2834799575
2840,0.2639296054
2841,0.2639296054
2842,0.2541544437
2843,0.2346040964
2844,0.2150537729
2845,0.2150537729
2846,0.1955034160
2847,0.2248289346
2848,0.2248289346
2849,0.2248289346
2850,0.2052785873
2851,0.1857282543
2852,0.1857282543
2853,0.1857282543
2854,0.1759530782
2855,0.1661779165
2856,0.1661779165
2857,0.1564027309
2858,0.1368523955
2859,0.1173020482
2860,0.1075268864
2861,0.1270772218
2862,0.1466275596
2863,0.1270772218
2864,0.1173020482
2865,0.0977517032
2866,0.0879765415
2867,0.0879765415
2868,0.1075268864
2869,0.0977517032
2870,0.0879765415
2871,0.0879765415
2872,0.0782013654
2873,0.0684261989
2874,0.0879765415
2875,0.0977517032
2876,0.1173020482
2877,0.1075268864
2878,0.1173020482
2879,0.1466275596
2880,0.1368523955
2881,0.2150537729
2882,0.2737047910
2883,0.4007820129
2884,0.4692081928
2885,0.6256109237
2886,0.7331378459
2887,0.7624633312
2888,0.8797654151
2889,0.9286412239
2890,1.3978494453
2891,1.4565005302
2892,1.5053763389
2893,1.3880742835
2894,1.4173997879
2895,1.4076246261
2896,1.3782991170
2897,1.6031280517
2898,1.9648094177
2899,1.7790811061
2900,1.7497556209
2901,1.7106549739
2902,1.5738025665
2903,1.5640273094
2904,1.3978494453
2905,1.3587487936
2906,1.2414467334
2907,1.3489736318
2908,1.1632453203
2909,0.9970674514
2910,0.8895405769
2911,0.7624633312
2912,0.6744868278
2913,0.6256109237
2914,0.6158357620
2915,0.5669599056
2916,0.7331378459
2917,0.7624633312
2918,0.7135874748
2919,0.7526881694
2920,0.6842619895
2921,0.6842619895
2922,0.7233626842
2923,0.6549364089
2924,0.6451612472
2925,0.6451612472
2926,0.6549364089
2927,0.6256109237
2928,0.7135874748
2929,0.7233626842
2930,0.6158357620
2931,0.6353860855
2932,0.6647116661
2933,0.6940371513
2934,0.7429130077
2935,0.6940371513
2936,0.6353860855
2937,0.6549364089
2938,0.6158357620
2939,0.6158357620
2940,0.5669599056
2941,0.5180840492
2942,0.4789833545
2943,0.4105571746
2944,0.4203323364
2945,0.4496578693
2946,0.4007820129
2947,0.3616813421
2948,0.4398827075
2949,0.4789833545
2950,0.4203323364
2951,0.3519061565
2952,0.4398827075
2953,0.4105571746
2954,0.3812316703
2955,0.3421309947
2956,0.3225806236
2957,0.3519061565
2958,0.3519061565
2959,0.3323558330
2960,0.2834799575
2961,0.2737047910
2962,0.2932551193
2963,0.2541544437
2964,0.2932551193
2965,0.3030303001
2966,0.3030303001
2967,0.2541544437
2968,0.2541544437
2969,0.2346040964
2970,0.2150537729
2971,0.1955034160
2972,0.1857282543
2973,0.1857282543
2974,0.1661779165
2975,0.1661779165
2976,0.1661779165
2977,0.1564027309
2978,0.1466275596
2979,0.1466275596
2980,0.1466275596
2981,0.1173020482
2982,0.1270772218
2983,0.1270772218
2984,0.1173020482
2985,0.0977517032
2986,0.0879765415
2987,0.0879765415
2988,0.0782013654
2989,0.0977517032
2990,0.1075268864
2991,0.1075268864
2992,0.1075268864
2993,0.1661779165
2994,0.2346040964
2995,0.4594330310
2996,0.4496578693
2997,0.6842619895
2998,0.8504399299
2999,0.9090909004
3000,1.0654937028
3001,1.4467253684
3002,1.1436949968
3003,0.8993157386
3004,0.7038123130
3005,0.5474095821
3006,0.4301075458
3007,0.3421309947
3008,0.2639296054
3009,0.2052785873
3010,0.1661779165
3011,0.1270772218
3012,0.0977517032
3013,0.0782013654
3014,0.0684261989
3015,0.0488758516
3016,0.0391006832
3017,0.0195503416
3018,0.0195503416
3019,0.0195503416
3020,0.0097751703
3021,0.0097751703
3022,0.0097751703
3023,0.0000000000
3024,0.0000000000
3025,0.0000000000
3026,0.0000000000
3027,0.0000000000
3028,0.0000000000
3029,0.0000000000
3030,0.0000000000
3031,0.0000000000
3032,0.0000000000
3033,0.0000000000
3034,0.0000000000
3035,0.0000000000
3036,0.0000000000
3037,0.0000000000
3038,0.0000000000
3039,0.0000000000
3040,0.0000000000
3041,0.0000000000
3042,0.0000000000
3043,0.0000000000
3044,0.0000000000
3045,0.0000000000
3046,0.0000000000
3047,0.0000000000
3048,0.0000000000
3049,0.0000000000
3050,0.0000000000
3051,0.0000000000
3052,0.0000000000
3053,0.0000000000
3054,0.0000000000
3055,0.0000000000
3056,0.0000000000
3057,0.0000000000
3058,0.0000000000
3059,0.0000000000
3060,0.0000000000
3061,0.0000000000
3062,0.0000000000
3063,0.0000000000
3064,0.0000000000
3065,0.0000000000
3066,0.0000000000
3067,0.0000000000
3068,0.0000000000
3069,0.0000000000
3070,0.0000000000
3071,0.0000000000
3072,0.0000000000
3073,0.0000000000
3074,0.0000000000
3075,0.0000000000
3076,0.0000000000
3077,0.0000000000
3078,0.0000000000
3079,0.0000000000
3080,0.0000000000
3081,0.0000000000
3082,0.0000000000
3083,0.0000000000
3084,0.0000000000
3085,0.0000000000
3086,0.0000000000
3087,0.0000000000
3088,0.0000000000
3089,0.0000000000
3090,0.0000000000
3091,0.0000000000
3092,0.0000000000
3093,0.0000000000
3094,0.0000000000
3095,0.0000000000
3096,0.0000000000
3097,0.0000000000
3098,0.0000000000
3099,0.0000000000
3100,0.0000000000
3101,0.0000000000
3102,0.0000000000
3103,0.0000000000
3104,0.0000000000
3105,0.0000000000
3106,0.0000000000
3107,0.0000000000
3108,0.0000000000
3109,0.0000000000
3110,0.0000000000
3111,0.0000000000
3112,0.0000000000
3113,0.0000000000
3114,0.0000000000
3115,0.0000000000
3116,0.0000000000
3117,0.0000000000
3118,0.0000000000
3119,0.0000000000
3120,0.0000000000
3121,0.0000000000
3122,0.0000000000
3123,0.0000000000
3124,0.0000000000
3125,0.0000000000
3126,0.0000000000
3127,0.0000000000
3128,0.0000000000
3129,0.0000000000
3130,0.0000000000
3131,0.0000000000
3132,0.0000000000
3133,0.0000000000
3134,0.0000000000
3135,0.0000000000
3136,0.0000000000
3137,0.0000000000
3138,0.0000000000
3139,0.0000000000
3140,0.0000000000
3141,0.0000000000
3142,0.0000000000
3143,0.0000000000
3144,0.0000000000
3145,0.0000000000
3146,0.0000000000
3147,0.0000000000
3148,0.0000000000
3149,0.0000000000
3150,0.0000000000
3151,0.0000000000
3152,0.0000000000
3153,0.0000000000
3154,0.0000000000
3155,0.0000000000
3156,0.0000000000
3157,0.0000000000
3158,0.0000000000
3159,0.0000000000
3160,0.0000000000
3161,0.0000000000
3162,0.0000000000
3163,0.0000000000
3164,0.0000000000
3165,0.0000000000
3166,0.0000000000
3167,0.0000000000
3168,0.0000000000
3169,0.0000000000
3170,0.0000000000
3171,0.0000000000
3172,0.0000000000
3173,0.0000000000
3174,0.0000000000
3175,0.0000000000
3176,0.0000000000
3177,0.0000000000
3178,0.0000000000
3179,0.0000000000
3180,0.0000000000
3181,0.0000000000
3182,0.0000000000
3183,0.0000000000
3184,0.0000000000
3185,0.0000000000
3186,0.0000000000
3187,0.0000000000
3188,0.0000000000
3189,0.0000000000
3190,0.0000000000
3191,0.0000000000
3192,0.0000000000
3193,0.0000000000
3194,0.0000000000
3195,0.0000000000
3196,0.0000000000
3197,0.0000000000
3198,0.0000000000
3199,0.0000000000
3200,0.0000000000
3201,0.0000000000
3202,0.0000000000
3203,0.0000000000
3204,0.0000000000
3205,0.0000000000
3206,0.0000000000
3207,0.0000000000
3208,0.0000000000
3209,0.0000000000
3210,0.0000000000
3211,0.0000000000
3212,0.0000000000
3213,0.0000000000
3214,0.0000000000
3215,0.0000000000
3216,0.0000000000
3217,0.0000000000
3218,0.0000000000
3219,0.0000000000
3220,0.0000000000
3221,0.0000000000
3222,0.0000000000
3223,0.0000000000
3224,0.0000000000
3225,0.0000000000
3226,0.0000000000
3227,0.0000000000
3228,0.0000000000
3229,0.0000000000
3230,0.0000000000
3231,0.0000000000
3232,0.0000000000
3233,0.0000000000
3234,0.0000000000
3235,0.0000000000
3236,0.0000000000
3237,0.0000000000
3238,0.0000000000
3239,0.0000000000
3240,0.0000000000
3241,0.0000000000
3242,0.0000000000
3243,0.0000000000
3244,0.0000000000
3245,0.0000000000
3246,0.0000000000
3247,0.0000000000
3248,0.0000000000
3249,0.0000000000
3250,0.0000000000
3251,0.0000000000
3252,0.0000000000
3253,0.0000000000
3254,0.0000000000
3255,0.0000000000
3256,0.0000000000
3257,0.0000000000
3258,0.0000000000
3259,0.0000000000
3260,0.0000000000
3261,0.0000000000
3262,0.0000000000
3263,0.0000000000
3264,0.0000000000
3265,0.0000000000
3266,0.0000000000
3267,0.0000000000
3268,0.0000000000
3269,0.0000000000
3270,0.0000000000
3271,0.0000000000
3272,0.0000000000
3273,0.0000000000
3274,0.0000000000
3275,0.0000000000
3276,0.0000000000
3277,0.0000000000
3278,0.0000000000
3279,0.0000000000
3280,0.0000000000
3281,0.0000000000
3282,0.0000000000
3283,0.0000000000
3284,0.0000000000
3285,0.0000000000
3286,0.0000000000
3287,0.0000000000
3288,0.0000000000
3289,0.0000000000
3290,0.0000000000
3291,0.0000000000
3292,0.0000000000
3293,0.0000000000
3294,0.0000000000
3295,0.0000000000
3296,0.0000000000
3297,0.0000000000
3298,0.0000000000
3299,0.0000000000
3300,0.0000000000
3301,0.0000000000
3302,0.0000000000
3303,0.0000000000
3304,0.0000000000
3305,0.0000000000
3306,0.0000000000
3307,0.0000000000
3308,0.0000000000
3309,0.0000000000
3310,0.0000000000
3311,0.0000000000
3312,0.0000000000
3313,0.0000000000
3314,0.0000000000
3315,0.0000000000
3316,0.0000000000
3317,0.0000000000
3318,0.0000000000
3319,0.0000000000
3320,0.0000000000
3321,0.0000000000
3322,0.0000000000
3323,0.0000000000
3324,0.0000000000
3325,0.0000000000
3326,0.0000000000
3327,0.0000000000
3328,0.0000000000
3329,0.0000000000
3330,0.0000000000
3331,0.0000000000
3332,0.0000000000
3333,0.0000000000
3334,0.0000000000
3335,0.0000000000
3336,0.0000000000
3337,0.0000000000
3338,0.0000000000
3339,0.0000000000
3340,0.0000000000
3341,0.0000000000
3342,0.0000000000
3343,0.0000000000
3344,0.0000000000
3345,0.0000000000
3346,0.0000000000
3347,0.0000000000
3348,0.0000000000
3349,0.0000000000
3350,0.0000000000
3351,0.0000000000
3352,0.0000000000
3353,0.0000000000
3354,0.0000000000
3355,0.0000000000
3356,0.0000000000
3357,0.0000000000
3358,0.0000000000
3359,0.0000000000
3360,0.0000000000
3361,0.0000000000
3362,0.0000000000
3363,0.0000000000
3364,0.0000000000
3365,0.0000000000
3366,0.0000000000
3367,0.0000000000
3368,0.0000000000
3369,0.0000000000
3370,0.0000000000
3371,0.0000000000
3372,0.0000000000
3373,0.0000000000
3374,0.0000000000
3375,0.0000000000
3376,0.0000000000
3377,0.0000000000
3378,0.0000000000
3379,0.0000000000
3380,0.0000000000
3381,0.0000000000
3382,0.0000000000
3383,0.0000000000
3384,0.0000000000
3385,0.0000000000
3386,0.0000000000
3387,0.0000000000
3388,0.0000000000
3389,0.0000000000
3390,0.0000000000
3391,0.0000000000
3392,0.0000000000
3393,0.0000000000
3394,0.0000000000
3395,0.0000000000
3396,0.0000000000
3397,0.0000000000
3398,0.0000000000
3399,0.0000000000
3400,0.0000000000
3401,0.0000000000
3402,0.0000000000
3403,0.0000000000
3404,0.0000000000
3405,0.0000000000
3406,0.0000000000
3407,0.0000000000
3408,0.0000000000
3409,0.0000000000
3410,0.0000000000
3411,0.0000000000
3412,0.0000000000
3413,0.0000000000
3414,0.0000000000
3415,0.0000000000
3416,0.0000000000
3417,0.0000000000
3418,0.0000000000
3419,0.0000000000
3420,0.0000000000
3421,0.0000000000
3422,0.0000000000
3423,0.0000000000
3424,0.0000000000
3425,0.0000000000
3426,0.0000000000
3427,0.0000000000
3428,0.0000000000
3429,0.0000000000
3430,0.0000000000
3431,0.0000000000
3432,0.0000000000
3433,0.0000000000
3434,0.0000000000
3435,0.0000000000
3436,0.0000000000
3437,0.0000000000
3438,0.0000000000
3439,0.0000000000
3440,0.0000000000
3441,0.0000000000
3442,0.0000000000
3443,0.0000000000
3444,0.0000000000
3445,0.0000000000
3446,0.0000000000
3447,0.0000000000
3448,0.0000000000
3449,0.0000000000
3450,0.0000000000
3451,0.0000000000
3452,0.0000000000
3453,0.0000000000
3454,0.0000000000
3455,0.0000000000
3456,0.0000000000
3457,0.0000000000
3458,0.0000000000
3459,0.0000000000
3460,0.0000000000
3461,0.0000000000
3462,0.0000000000
3463,0.0000000000
3464,0.0000000000
3465,0.0000000000
3466,0.0000000000
3467,0.0000000000
3468,0.0000000000
3469,0.0000000000
3470,0.0000000000
3471,0.0000000000
3472,0.0000000000
3473,0.0000000000
3474,0.0000000000
3475,0.0000000000
3476,0.0000000000
3477,0.0000000000
3478,0.0000000000
3479,0.0000000000
3480,0.0000000000
3481,0.0000000000
3482,0.0000000000
3483,0.0000000000
3484,0.0000000000
3485,0.0000000000
3486,0.0000000000
3487,0.0000000000
3488,0.0000000000
3489,0.0000000000
3490,0.0000000000
3491,0.0000000000
3492,0.0000000000
3493,0.0000000000
3494,0.0000000000
3495,0.0000000000
3496,0.0000000000
3497,0.0000000000
3498,0.0000000000
3499,0.0000000000
3500,0.0000000000
3501,0.0000000000
3502,0.0000000000
3503,0.0000000000
3504,0.0000000000
3505,0.0000000000
3506,0.0000000000
3507,0.0000000000
3508,0.0000000000
3509,0.0000000000
3510,0.0000000000
3511,0.0000000000
3512,0.0000000000
3513,0.0000000000
3514,0.0000000000
3515,0.0000000000
3516,0.0000000000
3517,0.0000000000
3518,0.0000000000
3519,0.0000000000
3520,0.0000000000
3521,0.0000000000
3522,0.0000000000
3523,0.0000000000
3524,0.0000000000
3525,0.0000000000
3526,0.0000000000
3527,0.0000000000
3528,0.0000000000
3529,0.0000000000
3530,0.0000000000
3531,0.0000000000
3532,0.0000000000
3533,0.0000000000
3534,0.0000000000
3535,0.0000000000
3536,0.0000000000
3537,0.0000000000
3538,0.0000000000
3539,0.0000000000
3540,0.0000000000
3541,0.0000000000
3542,0.0000000000
3543,0.0000000000
3544,0.0000000000
3545,0.0000000000
3546,0.0000000000
3547,0.0000000000
3548,0.0000000000
3549,0.0000000000
3550,0.0000000000
3551,0.0000000000
3552,0.0000000000
3553,0.0000000000
3554,0.0000000000
3555,0.0000000000
3556,0.0000000000
3557,0.0000000000
3558,0.0000000000
3559,0.0000000000
3560,0.0000000000
3561,0.0000000000
3562,0.0000000000
3563,0.0000000000
3564,0.0000000000
3565,0.0000000000
3566,0.0000000000
3567,0.0000000000
3568,0.0000000000
3569,0.0000000000
3570,0.0000000000
3571,0.0000000000
3572,0.0000000000
3573,0.0000000000
3574,0.0000000000
3575,0.0000000000
3576,0.0000000000
3577,0.0000000000
3578,0.0000000000
3579,0.0000000000
3580,0.0000000000
3581,0.0000000000
3582,0.0000000000
3583,0.0000000000
3584,0.0000000000
3585,0.0000000000
3586,0.0000000000
3587,0.0000000000
3588,0.0000000000
3589,0.0000000000
3590,0.0000000000
3591,0.0000000000
3592,0.0000000000
3593,0.0000000000
3594,0.0000000000
3595,0.0000000000
3596,0.0000000000
3597,0.0000000000
3598,0.0000000000
3599,0.0000000000
3600,0.0000000000
3601,0.0000000000
3602,0.0000000000
3603,0.0000000000
3604,0.0000000000
3605,0.0000000000
3606,0.0000000000
3607,0.0000000000
3608,0.0000000000
3609,0.0000000000
3610,0.0000000000
3611,0.0000000000
3612,0.0000000000
3613,0.0000000000
3614,0.0000000000
3615,0.0000000000
3616,0.0000000000
3617,0.0000000000
3618,0.0000000000
3619,0.0000000000
3620,0.0000000000
3621,0.0000000000
3622,0.0000000000
3623,0.0000000000
3624,0.0000000000
3625,0.0000000000
3626,0.0000000000
3627,0.0000000000
3628,0.0000000000
3629,0.0000000000
3630,0.0000000000
3631,0.0000000000
3632,0.0000000000
3633,0.0000000000
3634,0.0000000000
3635,0.0000000000
3636,0.0000000000
3637,0.0000000000
3638,0.0000000000
3639,0.0000000000
3640,0.0000000000
3641,0.0000000000
3642,0.0000000000
3643,0.0000000000
3644,0.0000000000
3645,0.0000000000
3646,0.0000000000
3647,0.0000000000
3648,0.0000000000
3649,0.0000000000
3650,0.0000000000
3651,0.0000000000
3652,0.0000000000
3653,0.0000000000
3654,0.0000000000
3655,0.0000000000
3656,0.0000000000
3657,0.0000000000
3658,0.0000000000
3659,0.0000000000
3660,0.0000000000
3661,0.0000000000
3662,0.0000000000
3663,0.0000000000
3664,0.0000000000
3665,0.0000000000
3666,0.0000000000
3667,0.0000000000
3668,0.0000000000
3669,0.0000000000
3670,0.0000000000
3671,0.0000000000
3672,0.0000000000
3673,0.0000000000
3674,0.0000000000
3675,0.0000000000
3676,0.0000000000
3677,0.0000000000
3678,0.0000000000
3679,0.0000000000
3680,0.0000000000
3681,0.0000000000
3682,0.0000000000
3683,0.0000000000
3684,0.0000000000
3685,0.0000000000
3686,0.0000000000
3687,0.0000000000
3688,0.0000000000
3689,0.0000000000
3690,0.0000000000
3691,0.0000000000
3692,0.0000000000
3693,0.0000000000
3694,0.0000000000
3695,0.0000000000
3696,0.0000000000
3697,0.0000000000
3698,0.0000000000
3699,0.0000000000
3700,0.0000000000
3701,0.0000000000
3702,0.0000000000
3703,0.0000000000
3704,0.0000000000
3705,0.0000000000
3706,0.0000000000
3707,0.0000000000
3708,0.0000000000
3709,0.0000000000
3710,0.0000000000
3711,0.0000000000
3712,0.0000000000
3713,0.0000000000
3714,0.0000000000
3715,0.0000000000
3716,0.0000000000
3717,0.0000000000
3718,0.0000000000
3719,0.0000000000
3720,0.0000000000
3721,0.0000000000
3722,0.0000000000
3723,0.0000000000
3724,0.0000000000
3725,0.0000000000
3726,0.0000000000
3727,0.0000000000
3728,0.0000000000
3729,0.0000000000
3730,0.0000000000
3731,0.0000000000
3732,0.0000000000
3733,0.0000000000
3734,0.0000000000
3735,0.0000000000
3736,0.0000000000
3737,0.0000000000
3738,0.0000000000
3739,0.0000000000
3740,0.0000000000
3741,0.0000000000
3742,0.0000000000
3743,0.0000000000
3744,0.0000000000
3745,0.0000000000
3746,0.0000000000
3747,0.0000000000
3748,0.0000000000
3749,0.0000000000
3750,0.0000000000
3751,0.0000000000
3752,0.0000000000
3753,0.0000000000
3754,0.0000000000
3755,0.0000000000
3756,0.0000000000
3757,0.0000000000
3758,0.0000000000
3759,0.0000000000
3760,0.0000000000
3761,0.0000000000
3762,0.0000000000
3763,0.0000000000
3764,0.0000000000
3765,0.0000000000
3766,0.0000000000
3767,0.0000000000
3768,0.0000000000
3769,0.0000000000
3770,0.0000000000
3771,0.0000000000
3772,0.0000000000
3773,0.0000000000
3774,0.0000000000
3775,0.0000000000
3776,0.0000000000
3777,0.0000000000
3778,0.0000000000
3779,0.0000000000
3780,0.0000000000
3781,0.0000000000
3782,0.0000000000
3783,0.0000000000
3784,0.0000000000
3785,0.0000000000
3786,0.0000000000
3787,0.0000000000
3788,0.0000000000
3789,0.0000000000
3790,0.0000000000
3791,0.0000000000
3792,0.0000000000
3793,0.0000000000
3794,0.0000000000
3795,0.0000000000
3796,0.0000000000
3797,0.0000000000
3798,0.0000000000
3799,0.0000000000
3800,0.0000000000
3801,0.0000000000
3802,0.0000000000
3803,0.0000000000
3804,0.0000000000
3805,0.0000000000
3806,0.0000000000
3807,0.0000000000
3808,0.0000000000
3809,0.0000000000
3810,0.0000000000
3811,0.0000000000
3812,0.0000000000
3813,0.0000000000
3814,0.0000000000
3815,0.0000000000
3816,0.0000000000
3817,0.0000000000
3818,0.0000000000
3819,0.0000000000
3820,0.0000000000
3821,0.0000000000
3822,0.0000000000
3823,0.0000000000
3824,0.0000000000
3825,0.0000000000
3826,0.0000000000
3827,0.0000000000
3828,0.0000000000
3829,0.0000000000
3830,0.0000000000
3831,0.0000000000
3832,0.0000000000
3833,0.0000000000
3834,0.0000000000
3835,0.0000000000
3836,0.0000000000
3837,0.0000000000
3838,0.0000000000
3839,0.0000000000
3840,0.0000000000
3841,0.0000000000
3842,0.0000000000
3843,0.0000000000
3844,0.0000000000
3845,0.0000000000
3846,0.0000000000
3847,0.0000000000
3848,0.0000000000
3849,0.0000000000
3850,0.0000000000
3851,0.0000000000
3852,0.0000000000
3853,0.0000000000
3854,0.0000000000
3855,0.0000000000
3856,0.0000000000
3857,0.0000000000
3858,0.0000000000
3859,0.0000000000
3860,0.0000000000
3861,0.0000000000
3862,0.0000000000
3863,0.0000000000
3864,0.0000000000
3865,0.0000000000
3866,0.0000000000
3867,0.0000000000
3868,0.0000000000
3869,0.0000000000
3870,0.0000000000
3871,0.0000000000
3872,0.0000000000
3873,0.0000000000
3874,0.0000000000
3875,0.0000000000
3876,0.0000000000
3877,0.0000000000
3878,0.0000000000
3879,0.0000000000
3880,0.0000000000
3881,0.0000000000
3882,0.0000000000
3883,0.0000000000
3884,0.0000000000
3885,0.0000000000
3886,0.0000000000
3887,0.0000000000
3888,0.0000000000
3889,0.0000000000
3890,0.0000000000
3891,0.0000000000
3892,0.0000000000
3893,0.0000000000
3894,0.0000000000
3895,0.0000000000
3896,0.0000000000
3897,0.0000000000
3898,0.0000000000
3899,0.0000000000
3900,0.0000000000
3901,0.0000000000
3902,0.0000000000
3903,0.0000000000
3904,0.0000000000
3905,0.0000000000
3906,0.0000000000
3907,0.0000000000
3908,0.0000000000
3909,0.0000000000
3910,0.0000000000
3911,0.0000000000
3912,0.0000000000
3913,0.0000000000
3914,0.0000000000
3915,0.0000000000
3916,0.0000000000
3917,0.0000000000
3918,0.0000000000
3919,0.0000000000
3920,0.0000000000
3921,0.0000000000
3922,0.0000000000
3923,0.0000000000
3924,0.0000000000
3925,0.0000000000
3926,0.0000000000
3927,0.0000000000
3928,0.0000000000
3929,0.0000000000
3930,0.0000000000
3931,0.0000000000
3932,0.0000000000
3933,0.0000000000
3934,0.0000000000
3935,0.0000000000
3936,0.0000000000
3937,0.0000000000
3938,0.0000000000
3939,0.0000000000
3940,0.0000000000
3941,0.0000000000
3942,0.0000000000
3943,0.0000000000
3944,0.0000000000
3945,0.0000000000
3946,0.0000000000
3947,0.0000000000
3948,0.0000000000
3949,0.0000000000
3950,0.0000000000
3951,0.0000000000
3952,0.0000000000
3953,0.0000000000
3954,0.0000000000
3955,0.0000000000
3956,0.0000000000
3957,0.0000000000
3958,0.0000000000
3959,0.0000000000
3960,0.0000000000
3961,0.0000000000
3962,0.0000000000
3963,0.0000000000
3964,0.0000000000
3965,0.0000000000
3966,0.0000000000
3967,0.0000000000
3968,0.0000000000
3969,0.0000000000
3970,0.0000000000
3971,0.0000000000
3972,0.0000000000
3973,0.0000000000
3974,0.0000000000
3975,0.0000000000
3976,0.0000000000
3977,0.0000000000
3978,0.0000000000
3979,0.0000000000
3980,0.0000000000
3981,0.0000000000
3982,0.0000000000
3983,0.0000000000
3984,0.0000000000
3985,0.0000000000
3986,0.0000000000
3987,0.0000000000
3988,0.0000000000
3989,0.0000000000
3990,0.0000000000
3991,0.0000000000
3992,0.0000000000
3993,0.0000000000
3994,0.0000000000
3995,0.0000000000
3996,0.0000000000
3997,0.0000000000
3998,0.0000000000
3999,0.0000000000
0,0.0000000000
1,0.7233626842
2,0.7038123130
3,0.6940371513
4,0.5865102291
5,0.5669599056
6,0.5767350673
7,0.5767350673
8,0.5278592109
9,0.5180840492
10,0.4887585639
11,0.4594330310
12,0.4594330310
13,0.4398827075
14,0.4398827075
15,0.4496578693
16,0.4887585639
17,0.4985337257
18,0.5083088874
19,0.5376344203
20,0.5278592109
21,0.5278592109
22,0.5180840492
23,0.4985337257
24,0.4692081928
25,0.4301075458
26,0.4105571746
27,0.4887585639
28,0.4692081928
29,0.4301075458
30,0.3910068321
31,0.3714565038
32,0.3519061565
33,0.3519061565
34,0.3225806236
35,0.3030303001
36,0.2737047910
37,0.2639296054
38,0.2639296054
39,0.2932551193
40,0.3030303001
41,0.2737047910
42,0.2443792819
43,0.2346040964
44,0.2346040964
45,0.2541544437
46,0.2346040964
47,0.2150537729
48,0.2052785873
49,0.1955034160
50,0.1857282543
51,0.1661779165
52,0.1564027309
53,0.1661779165
54,0.1661779165
55,0.1466275596
56,0.1270772218
57,0.1173020482
58,0.1270772218
59,0.1173020482
60,0.1270772218
61,0.1075268864
62,0.0977517032
63,0.0879765415
64,0.0977517032
65,0.1075268864
66,0.0977517032
67,0.0977517032
68,0.0879765415
69,0.0684261989
70,0.0782013654
71,0.0782013654
72,0.0782013654
73,0.0879765415
74,0.0977517032
75,0.0782013654
76,0.0782013654
77,0.0879765415
78,0.1075268864
79,0.1661779165
80,0.1466275596
81,0.1368523955
82,0.1368523955
83,0.1270772218
84,0.1270772218
85,0.1075268864
86,0.0977517032
87,0.0977517032
88,0.0977517032
89,0.1075268864
90,0.1564027309
91,0.1564027309
92,0.1466275596
93,0.1368523955
94,0.1270772218
95,0.1270772218
96,0.1368523955
97,0.1270772218
98,0.1270772218
99,0.1466275596
100,0.1368523955
101,0.1173020482
102,0.1075268864
103,0.0977517032
104,0.0879765415
105,0.0977517032
106,0.0977517032
107,0.0977517032
108,0.1075268864
109,0.1173020482
110,0.1173020482
111,0.1075268864
112,0.1075268864
113,0.0977517032
114,0.0879765415
115,0.1075268864
116,0.1173020482
117,0.1173020482
118,0.1075268864
119,0.0879765415
120,0.1466275596
121,0.1368523955
122,0.1173020482
123,0.1075268864
124,0.1173020482
125,0.1270772218
126,0.1173020482
127,0.0977517032
128,0.1075268864
129,0.1075268864
130,0.1075268864
131,0.1368523955
132,0.1661779165
133,0.1564027309
134,0.1857282543
135,0.2639296054
136,0.2737047910
137,0.2639296054
138,0.2541544437
139,0.2443792819
140,0.2737047910
141,0.2737047910
142,0.2932551193
143,0.3030303001
144,0.3128054618
145,0.3323558330
146,0.3616813421
147,0.4496578693
148,0.4496578693
149,0.4985337257
150,0.4887585639
151,0.4789833545
152,0.4496578693
153,0.4789833545
154,0.5376344203
155,0.5180840492
156,0.4789833545
157,0.4985337257
158,0.5083088874
159,0.4789833545
160,0.4496578693
161,0.4985337257
162,0.4496578693
163,0.4203323364
164,0.4398827075
165,0.4203323364
166,0.3910068321
167,0.3421309947
168,0.3421309947
169,0.4007820129
170,0.3519061565
171,0.3225806236
172,0.2932551193
173,0.3128054618
174,0.3030303001
175,0.2639296054
176,0.2639296054
177,0.2346040964
178,0.2150537729
179,0.2443792819
180,0.2150537729
181,0.2150537729
182,0.2248289346
183,0.2248289346
184,0.2052785873
185,0.1857282543
186,0.2052785873
187,0.2150537729
188,0.1955034160
189,0.1661779165
190,0.1759530782
191,0.1564027309
192,0.1759530782
193,0.1564027309
194,0.1466275596
195,0.1564027309
196,0.1368523955
197,0.1368523955
198,0.1368523955
199,0.1270772218
200,0.1270772218
201,0.1368523955
202,0.1173020482
203,0.0977517032
204,0.0879765415
205,0.1173020482
206,0.1368523955
207,0.1368523955
208,0.1173020482
209,0.1075268864
210,0.1075268864
211,0.1173020482
212,0.1270772218
213,0.1075268864
214,0.1173020482
215,0.1075268864
216,0.0879765415
217,0.0879765415
218,0.0879765415
219,0.0782013654
220,0.0782013654
221,0.0782013654
222,0.0684261989
223,0.0684261989
224,0.0684261989
225,0.0879765415
226,0.0782013654
227,0.0782013654
228,0.0879765415
229,0.0879765415
230,0.0977517032
231,0.0977517032
232,0.0782013654
233,0.0879765415
234,0.0879765415
235,0.0879765415
236,0.0879765415
237,0.0782013654
238,0.0684261989
239,0.0782013654
240,0.0684261989
241,0.0879765415
242,0.0879765415
243,0.0879765415
244,0.0782013654
245,0.0782013654
246,0.0879765415
247,0.0977517032
248,0.0879765415
249,0.0977517032
250,0.0879765415
251,0.0782013654
252,0.0586510229
253,0.0586510229
254,0.0488758516
255,0.0488758516