0,0.0195503416
1,0.1466275596
2,0.2052785873
3,0.2248289346
4,0.2346040964
5,0.2248289346
6,0.1759530782
7,0.1466275596
8,0.1270772218
9,0.0977517032
10,0.0782013654
11,0.0684261989
12,0.0488758516
13,0.0391006832
14,0.0391006832
15,0.0391006832
16,0.0293255119
17,0.0293255119
18,0.0195503416
19,0.0195503416
20,0.0097751703
21,0.0097751703
22,0.0097751703
23,0.0097751703
24,0.0097751703
25,0.0097751703
26,0.0097751703
27,0.0097751703
28,0.0097751703
29,0.0097751703
30,0.0097751703
31,0.0097751703
32,0.0097751703
33,0.0097751703
34,0.0097751703
35,0.0097751703
36,0.0097751703
37,0.0097751703
38,0.0097751703
39,0.0097751703
40,0.0097751703
41,0.0097751703
42,0.0097751703
43,0.0097751703
44,0.0097751703
45,0.0097751703
46,0.0097751703
47,0.0097751703
48,0.0097751703
49,0.0097751703
50,0.0097751703
51,0.0097751703
52,0.0097751703
53,0.0097751703
54,0.0097751703
55,0.0097751703
56,0.0097751703
57,0.0097751703
58,0.0097751703
59,0.0097751703
60,0.0097751703
61,0.0097751703
62,0.0097751703
63,0.0000000000
64,0.0000000000
65,0.0000000000
66,0.0000000000
67,0.0000000000
68,0.0000000000
69,0.0000000000
70,0.0097751703
71,0.0097751703
72,0.0097751703
73,0.0293255119
74,0.0293255119
75,0.0293255119
76,0.0293255119
77,0.0391006832
78,0.0586510229
79,0.0684261989
80,0.0684261989
81,0.0684261989
82,0.0684261989
83,0.0782013654
84,0.0782013654
85,0.0879765415
86,0.0879765415
87,0.0782013654
88,0.0782013654
89,0.0586510229
90,0.0586510229
91,0.0488758516
92,0.0391006832
93,0.0391006832
94,0.0293255119
95,0.0195503416
96,0.0195503416
97,0.0097751703
98,0.0097751703
99,0.0097751703
100,0.0097751703
101,0.0097751703
102,0.0000000000
103,0.0000000000
104,0.0000000000
105,0.0000000000
106,0.0000000000
107,0.0000000000
108,0.0000000000
109,0.0000000000
110,0.0000000000
111,0.0097751703
112,0.0097751703
113,0.0097751703
114,0.0097751703
115,0.0097751703
116,0.0195503416
117,0.0195503416
118,0.0391006832
119,0.0391006832
120,0.0391006832
121,0.0391006832
122,0.0488758516
123,0.0586510229
124,0.0586510229
125,0.0684261989
126,0.0782013654
127,0.1173020482
128,0.1466275596
129,0.1466275596
130,0.1661779165
131,0.1857282543
132,0.2052785873
133,0.2052785873
134,0.1955034160
135,0.1955034160
136,0.2248289346
137,0.2346040964
138,0.2541544437
139,0.2834799575
140,0.2541544437
141,0.2346040964
142,0.2346040964
143,0.2150537729
144,0.2052785873
145,0.1955034160
146,0.1857282543
147,0.1955034160
148,0.1955034160
149,0.2052785873
150,0.2052785873
151,0.1857282543
152,0.1857282543
153,0.1759530782
154,0.1564027309
155,0.1466275596
156,0.1173020482
157,0.1075268864
158,0.0977517032
159,0.0879765415
160,0.0879765415
161,0.0977517032
162,0.1075268864
163,0.0977517032
164,0.0977517032
165,0.0879765415
166,0.0879765415
167,0.0879765415
168,0.0879765415
169,0.0879765415
170,0.1075268864
171,0.1075268864
172,0.1173020482
173,0.1075268864
174,0.0879765415
175,0.0684261989
176,0.0684261989
177,0.0684261989
178,0.0684261989
179,0.0586510229
180,0.0782013654
181,0.0782013654
182,0.0782013654
183,0.0684261989
184,0.0684261989
185,0.0684261989
186,0.0782013654
187,0.0684261989
188,0.0684261989
189,0.0684261989
190,0.0684261989
191,0.0586510229
192,0.0586510229
193,0.0586510229
194,0.0586510229
195,0.0586510229
196,0.0586510229
197,0.0488758516
198,0.0488758516
199,0.0586510229
200,0.0488758516
201,0.0391006832
202,0.0488758516
203,0.0391006832
204,0.0391006832
205,0.0391006832
206,0.0293255119
207,0.0488758516
208,0.0391006832
209,0.0391006832
210,0.0391006832
211,0.0391006832
212,0.0293255119
213,0.0293255119
214,0.0293255119
215,0.0293255119
216,0.0293255119
217,0.0293255119
218,0.0195503416
219,0.0293255119
220,0.0293255119
221,0.0195503416
222,0.0293255119
223,0.0195503416
224,0.0195503416
225,0.0195503416
226,0.0097751703
227,0.0097751703
228,0.0195503416
229,0.0097751703
230,0.0097751703
231,0.0195503416
232,0.0195503416
233,0.0195503416
234,0.0195503416
235,0.0293255119
236,0.0391006832
237,0.0293255119
238,0.0293255119
239,0.0293255119
240,0.0488758516
241,0.0684261989
242,0.0782013654
243,0.0684261989
244,0.0684261989
245,0.0782013654
246,0.0879765415
247,0.0782013654
248,0.0586510229
249,0.0488758516
250,0.0391006832
251,0.0391006832
252,0.0293255119
253,0.0293255119
254,0.0293255119
255,0.0293255119
256,0.0195503416
257,0.0195503416
258,0.0195503416
259,0.0391006832
260,0.0586510229
261,0.0684261989
262,0.0684261989
263,0.0684261989
264,0.0879765415
265,0.1173020482
266,0.1173020482
267,0.1075268864
268,0.1173020482
269,0.1075268864
270,0.0879765415
271,0.0782013654
272,0.0782013654
273,0.0684261989
274,0.0488758516
275,0.0391006832
276,0.0293255119
277,0.0293255119
278,0.0293255119
279,0.0293255119
280,0.0195503416
281,0.0293255119
282,0.0391006832
283,0.0391006832
284,0.0586510229
285,0.0586510229
286,0.0586510229
287,0.0684261989
288,0.0782013654
289,0.0782013654
290,0.0782013654
291,0.0782013654
292,0.0879765415
293,0.0879765415
294,0.0977517032
295,0.0977517032
296,0.0977517032
297,0.1075268864
298,0.1368523955
299,0.1466275596
300,0.1466275596
301,0.1564027309
302,0.1661779165
303,0.1564027309
304,0.1564027309
305,0.1466275596
306,0.1466275596
307,0.1466275596
308,0.1857282543
309,0.1857282543
310,0.1661779165
311,0.1661779165
312,0.1564027309
313,0.1368523955
314,0.1270772218
315,0.1270772218
316,0.1270772218
317,0.1270772218
318,0.1173020482
319,0.1270772218
320,0.1173020482
321,0.1173020482
322,0.1173020482
323,0.1173020482
324,0.1075268864
325,0.1173020482
326,0.0977517032
327,0.0879765415
328,0.0782013654
329,0.0684261989
330,0.0586510229
331,0.0488758516
332,0.0488758516
333,0.0391006832
334,0.0293255119
335,0.0293255119
336,0.0391006832
337,0.0586510229
338,0.0782013654
339,0.0879765415
340,0.0977517032
341,0.1270772218
342,0.1466275596
343,0.1368523955
344,0.1368523955
345,0.1270772218
346,0.1075268864
347,0.1075268864
348,0.0977517032
349,0.0879765415
350,0.0879765415
351,0.0782013654
352,0.0782013654
353,0.0879765415
354,0.0684261989
355,0.0684261989
356,0.0684261989
357,0.0684261989
358,0.0684261989
359,0.0684261989
360,0.0684261989
361,0.0586510229
362,0.0586510229
363,0.0488758516
364,0.0782013654
365,0.0782013654
366,0.0782013654
367,0.0684261989
368,0.0684261989
369,0.0684261989
370,0.0684261989
371,0.0586510229
372,0.0586510229
373,0.0684261989
374,0.0586510229
375,0.0684261989
376,0.0586510229
377,0.0488758516
378,0.0488758516
379,0.0391006832
380,0.0391006832
381,0.0391006832
382,0.0391006832
383,0.0488758516
384,0.0391006832
385,0.0293255119
386,0.0293255119
387,0.0293255119
388,0.0293255119
389,0.0195503416
390,0.0293255119
391,0.0293255119
392,0.0293255119
393,0.0293255119
394,0.0293255119
395,0.0195503416
396,0.0293255119
397,0.0391006832
398,0.0293255119
399,0.0293255119
400,0.0391006832
401,0.0293255119
402,0.0293255119
403,0.0293255119
404,0.0293255119
405,0.0195503416
406,0.0195503416
407,0.0195503416
408,0.0195503416
409,0.0195503416
410,0.0293255119
411,0.0195503416
412,0.0293255119
413,0.0293255119
414,0.0293255119
415,0.0488758516
416,0.0391006832
417,0.0391006832
418,0.0391006832
419,0.0293255119
420,0.0293255119
421,0.0391006832
422,0.0586510229
423,0.0586510229
424,0.0488758516
425,0.0586510229
426,0.0488758516
427,0.0488758516
428,0.0879765415
429,0.0782013654
430,0.0782013654
431,0.0782013654
432,0.0684261989
433,0.0586510229
434,0.0488758516
435,0.0488758516
436,0.0391006832
437,0.0293255119
438,0.0293255119
439,0.0293255119
440,0.0195503416
441,0.0391006832
442,0.0586510229
443,0.0586510229
444,0.0879765415
445,0.0879765415
446,0.0977517032
447,0.1173020482
448,0.1270772218
449,0.1368523955
450,0.1173020482
451,0.1270772218
452,0.0977517032
453,0.0782013654
454,0.0684261989
455,0.0488758516
456,0.0488758516
457,0.0684261989
458,0.0879765415
459,0.0782013654
460,0.0586510229
461,0.0586510229
462,0.0586510229
463,0.0488758516
464,0.0488758516
465,0.0391006832
466,0.0391006832
467,0.0293255119
468,0.0293255119
469,0.0293255119
470,0.0293255119
471,0.0293255119
472,0.0293255119
473,0.0293255119
474,0.0391006832
475,0.0488758516
476,0.0488758516
477,0.0391006832
478,0.0488758516
479,0.0488758516
480,0.0391006832
481,0.0488758516
482,0.0488758516
483,0.0586510229
484,0.0684261989
485,0.0782013654
486,0.0977517032
487,0.1075268864
488,0.1173020482
489,0.1173020482
490,0.1173020482
491,0.1270772218
492,0.1270772218
493,0.1368523955
494,0.1466275596
495,0.1466275596
496,0.1466275596
497,0.1759530782
498,0.1564027309
499,0.1466275596
500,0.1368523955
501,0.1368523955
502,0.1270772218
503,0.1173020482
504,0.1075268864
505,0.1075268864
506,0.0879765415
507,0.0977517032
508,0.0879765415
509,0.0879765415
510,0.0977517032
511,0.1075268864
512,0.0977517032
513,0.0977517032
514,0.0879765415
515,0.0782013654
516,0.0684261989
517,0.0586510229
518,0.0488758516
519,0.0488758516
520,0.0391006832
521,0.0293255119
522,0.0293255119
523,0.0195503416
524,0.0293255119
525,0.0195503416
526,0.0195503416
527,0.0195503416
528,0.0391006832
529,0.0586510229
530,0.0586510229
531,0.0586510229
532,0.0782013654
533,0.1075268864
534,0.1564027309
535,0.1564027309
536,0.1466275596
537,0.1270772218
538,0.1173020482
539,0.1270772218
540,0.1173020482
541,0.0977517032
542,0.1075268864
543,0.0879765415
544,0.0879765415
545,0.0879765415
546,0.0782013654
547,0.0879765415
548,0.0879765415
549,0.0782013654
550,0.0684261989
551,0.0586510229
552,0.0684261989
553,0.0684261989
554,0.0684261989
555,0.0684261989
556,0.0782013654
557,0.0879765415
558,0.0782013654
559,0.0782013654
560,0.0879765415
561,0.0782013654
562,0.0782013654
563,0.0782013654
564,0.0879765415
565,0.0782013654
566,0.0782013654
567,0.0684261989
568,0.0684261989
569,0.0586510229
570,0.0586510229
571,0.0488758516
572,0.0488758516
573,0.0488758516
574,0.0488758516
575,0.0391006832
576,0.0391006832
577,0.0391006832
578,0.0293255119
579,0.0488758516
580,0.0391006832
581,0.0391006832
582,0.0391006832
583,0.0391006832
584,0.0391006832
585,0.0293255119
586,0.0293255119
587,0.0293255119
588,0.0293255119
589,0.0293255119
590,0.0293255119
591,0.0195503416
592,0.0195503416
593,0.0195503416
594,0.0195503416
595,0.0195503416
596,0.0195503416
597,0.0195503416
598,0.0195503416
599,0.0195503416
600,0.0195503416
601,0.0293255119
602,0.0293255119
603,0.0391006832
604,0.0391006832
605,0.0391006832
606,0.0293255119
607,0.0293255119
608,0.0293255119
609,0.0391006832
610,0.0391006832
611,0.0293255119
612,0.0391006832
613,0.0488758516
614,0.0586510229
615,0.0488758516
616,0.0488758516
617,0.0488758516
618,0.0488758516
619,0.0391006832
620,0.0391006832
621,0.0391006832
622,0.0293255119
623,0.0293255119
624,0.0195503416
625,0.0293255119
626,0.0293255119
627,0.0195503416
628,0.0195503416
629,0.0195503416
630,0.0293255119
631,0.0293255119
632,0.0195503416
633,0.0293255119
634,0.0488758516
635,0.0488758516
636,0.0586510229
637,0.0782013654
638,0.0977517032
639,0.1270772218
640,0.1466275596
641,0.1564027309
642,0.1270772218
643,0.1173020482
644,0.1075268864
645,0.0879765415
646,0.0586510229
647,0.0488758516
648,0.0391006832
649,0.0586510229
650,0.0684261989
651,0.0879765415
652,0.0782013654
653,0.0684261989
654,0.0684261989
655,0.0684261989
656,0.0684261989
657,0.0684261989
658,0.0782013654
659,0.0977517032
660,0.1173020482
661,0.0977517032
662,0.0879765415
663,0.0879765415
664,0.0977517032
665,0.0977517032
666,0.0879765415
667,0.0977517032
668,0.1173020482
669,0.1075268864
670,0.1173020482
671,0.1075268864
672,0.1270772218
673,0.1270772218
674,0.1466275596
675,0.1466275596
676,0.1466275596
677,0.1368523955
678,0.1466275596
679,0.1466275596
680,0.1564027309
681,0.1661779165
682,0.1466275596
683,0.1564027309
684,0.1564027309
685,0.1759530782
686,0.1564027309
687,0.1368523955
688,0.1368523955
689,0.1270772218
690,0.1270772218
691,0.1270772218
692,0.1270772218
693,0.1173020482
694,0.1075268864
695,0.0977517032
696,0.0879765415
697,0.0782013654
698,0.0782013654
699,0.0879765415
700,0.0879765415
701,0.0879765415
702,0.0782013654
703,0.0684261989
704,0.0684261989
705,0.0684261989
706,0.0684261989
707,0.0586510229
708,0.0586510229
709,0.0586510229
710,0.0488758516
711,0.0488758516
712,0.0586510229
713,0.0488758516
714,0.0391006832
715,0.0293255119
716,0.0391006832
717,0.0391006832
718,0.0293255119
719,0.0293255119
720,0.0391006832
721,0.0488758516
722,0.0488758516
723,0.0391006832
724,0.0293255119
725,0.0293255119
726,0.0391006832
727,0.0293255119
728,0.0293255119
729,0.0293255119
730,0.0293255119
731,0.0195503416
732,0.0293255119
733,0.0195503416
734,0.0195503416
735,0.0293255119
736,0.0293255119
737,0.0391006832
738,0.0586510229
739,0.0684261989
740,0.0684261989
741,0.0684261989
742,0.0586510229
743,0.0684261989
744,0.0586510229
745,0.0586510229
746,0.0586510229
747,0.0391006832
748,0.0488758516
749,0.0391006832
750,0.0293255119
751,0.0293255119
752,0.0293255119
753,0.0293255119
754,0.0195503416
755,0.0195503416
756,0.0293255119
757,0.0293255119
758,0.0293255119
759,0.0293255119
760,0.0293255119
761,0.0293255119
762,0.0195503416
763,0.0195503416
764,0.0293255119
765,0.0195503416
766,0.0195503416
767,0.0195503416
768,0.0195503416
769,0.0293255119
770,0.0293255119
771,0.0195503416
772,0.0195503416
773,0.0195503416
774,0.0195503416
775,0.0195503416
776,0.0293255119
777,0.0293255119
778,0.0195503416
779,0.0293255119
780,0.0195503416
781,0.0293255119
782,0.0293255119
783,0.0293255119
784,0.0293255119
785,0.0195503416
786,0.0195503416
787,0.0195503416
788,0.0195503416
789,0.0195503416
790,0.0293255119
791,0.0293255119
792,0.0195503416
793,0.0195503416
794,0.0097751703
795,0.0097751703
796,0.0097751703
797,0.0195503416
798,0.0195503416
799,0.0097751703
800,0.0097751703
801,0.0195503416
802,0.0195503416
803,0.0195503416
804,0.0195503416
805,0.0195503416
806,0.0293255119
807,0.0293255119
808,0.0391006832
809,0.0293255119
810,0.0293255119
811,0.0391006832
812,0.0488758516
813,0.0391006832
814,0.0391006832
815,0.0293255119
816,0.0293255119
817,0.0293255119
818,0.0684261989
819,0.0782013654
820,0.0684261989
821,0.0782013654
822,0.0586510229
823,0.0488758516
824,0.0586510229
825,0.0586510229
826,0.0488758516
827,0.0391006832
828,0.0391006832
829,0.0391006832
830,0.0488758516
831,0.0391006832
832,0.0391006832
833,0.0488758516
834,0.0684261989
835,0.0684261989
836,0.0879765415
837,0.0977517032
838,0.1173020482
839,0.1173020482
840,0.1075268864
841,0.0977517032
842,0.0977517032
843,0.0782013654
844,0.0782013654
845,0.0684261989
846,0.0684261989
847,0.0488758516
848,0.0391006832
849,0.0391006832
850,0.0293255119
851,0.0293255119
852,0.0391006832
853,0.0391006832
854,0.0391006832
855,0.0488758516
856,0.0488758516
857,0.0586510229
858,0.0684261989
859,0.0684261989
860,0.0782013654
861,0.0782013654
862,0.0684261989
863,0.0586510229
864,0.0586510229
865,0.0684261989
866,0.0684261989
867,0.0782013654
868,0.0782013654
869,0.0782013654
870,0.0879765415
871,0.0879765415
872,0.0977517032
873,0.1075268864
874,0.1075268864
875,0.1173020482
876,0.1270772218
877,0.1270772218
878,0.1368523955
879,0.1368523955
880,0.1466275596
881,0.1466275596
882,0.1466275596
883,0.1661779165
884,0.1466275596
885,0.1368523955
886,0.1270772218
887,0.1270772218
888,0.1173020482
889,0.1270772218
890,0.1270772218
891,0.1270772218
892,0.1173020482
893,0.1075268864
894,0.1173020482
895,0.1173020482
896,0.1270772218
897,0.1173020482
898,0.1075268864
899,0.1075268864
900,0.0977517032
901,0.0879765415
902,0.0879765415
903,0.0782013654
904,0.0684261989
905,0.0586510229
906,0.0488758516
907,0.0488758516
908,0.0586510229
909,0.0684261989
910,0.0879765415
911,0.0879765415
912,0.1075268864
913,0.1270772218
914,0.1270772218
915,0.1270772218
916,0.1173020482
917,0.1270772218
918,0.1075268864
919,0.0977517032
920,0.0977517032
921,0.0879765415
922,0.0782013654
923,0.0586510229
924,0.0586510229
925,0.0586510229
926,0.0586510229
927,0.0586510229
928,0.0586510229
929,0.0684261989
930,0.0684261989
931,0.0586510229
932,0.0684261989
933,0.0684261989
934,0.0684261989
935,0.0586510229
936,0.0586510229
937,0.0684261989
938,0.0879765415
939,0.1270772218
940,0.1270772218
941,0.1173020482
942,0.1075268864
943,0.0977517032
944,0.0782013654
945,0.0879765415
946,0.0879765415
947,0.0684261989
948,0.0684261989
949,0.0488758516
950,0.0488758516
951,0.0488758516
952,0.0488758516
953,0.0391006832
954,0.0391006832
955,0.0391006832
956,0.0293255119
957,0.0293255119
958,0.0293255119
959,0.0293255119
960,0.0293255119
961,0.0195503416
962,0.0195503416
963,0.0195503416
964,0.0195503416
965,0.0293255119
966,0.0195503416
967,0.0195503416
968,0.0195503416
969,0.0195503416
970,0.0195503416
971,0.0293255119
972,0.0293255119
973,0.0195503416
974,0.0195503416
975,0.0195503416
976,0.0195503416
977,0.0195503416
978,0.0195503416
979,0.0195503416
980,0.0195503416
981,0.0195503416
982,0.0195503416
983,0.0195503416
984,0.0195503416
985,0.0195503416
986,0.0195503416
987,0.0195503416
988,0.0195503416
989,0.0195503416
990,0.0195503416
991,0.0195503416
992,0.0293255119
993,0.0195503416
994,0.0195503416
995,0.0195503416
996,0.0195503416
997,0.0293255119
998,0.0293255119
999,0.0293255119
1000,0.0391006832
1001,0.5376344203
1002,0.4301075458
1003,0.3616813421
1004,0.2932551193
1005,0.2443792819
1006,0.1955034160
1007,0.1661779165
1008,0.1368523955
1009,0.1173020482
1010,0.1075268864
1011,0.0977517032
1012,0.0879765415
1013,0.0782013654
1014,0.0879765415
1015,0.0977517032
1016,0.0977517032
1017,0.0879765415
1018,0.0879765415
1019,0.0879765415
1020,0.1368523955
1021,0.1466275596
1022,0.1466275596
1023,0.2150537729
1024,0.2052785873
1025,0.2541544437
1026,0.2639296054
1027,0.2932551193
1028,0.3030303001
1029,0.2834799575
1030,0.2639296054
1031,0.2639296054
1032,0.2443792819
1033,0.2443792819
1034,0.2737047910
1035,0.2541544437
1036,0.2248289346
1037,0.1955034160
1038,0.1857282543
1039,0.1564027309
1040,0.1466275596
1041,0.1466275596
1042,0.1173020482
1043,0.1173020482
1044,0.0977517032
1045,0.0879765415
1046,0.0782013654
1047,0.0684261989
1048,0.0684261989
1049,0.0586510229
1050,0.0586510229
1051,0.0488758516
1052,0.0488758516
1053,0.0488758516
1054,0.0488758516
1055,0.0488758516
1056,0.0586510229
1057,0.0586510229
1058,0.0684261989
1059,0.0684261989
1060,0.0684261989
1061,0.0684261989
1062,0.0586510229
1063,0.0782013654
1064,0.0684261989
1065,0.0586510229
1066,0.0684261989
1067,0.0684261989
1068,0.0782013654
1069,0.0684261989
1070,0.0879765415
1071,0.0879765415
1072,0.0879765415
1073,0.0879765415
1074,0.1075268864
1075,0.1368523955
1076,0.1564027309
1077,0.1466275596
1078,0.1466275596
1079,0.1368523955
1080,0.2150537729
1081,0.1955034160
1082,0.1955034160
1083,0.1661779165
1084,0.1759530782
1085,0.1661779165
1086,0.1368523955
1087,0.1368523955
1088,0.1270772218
1089,0.1270772218
1090,0.1173020482
1091,0.1075268864
1092,0.1075268864
1093,0.1075268864
1094,0.1075268864
1095,0.1075268864
1096,0.1173020482
1097,0.0879765415
1098,0.0782013654
1099,0.0586510229
1100,0.0488758516
1101,0.0488758516
1102,0.0293255119
1103,0.0293255119
1104,0.0195503416
1105,0.0195503416
1106,0.0195503416
1107,0.0195503416
1108,0.0195503416
1109,0.0195503416
1110,0.0097751703
1111,0.0195503416
1112,0.0097751703
1113,0.0195503416
1114,0.0195503416
1115,0.0195503416
1116,0.0097751703
1117,0.0097751703
1118,0.0097751703
1119,0.0000000000
1120,0.0000000000
1121,0.0097751703
1122,0.0097751703
1123,0.0000000000
1124,0.0000000000
1125,0.0000000000
1126,0.0000000000
1127,0.0000000000
1128,0.0000000000
1129,0.0000000000
1130,0.0000000000
1131,0.0000000000
1132,0.0097751703
1133,0.0195503416
1134,0.0195503416
1135,0.0293255119
1136,0.0293255119
1137,0.0293255119
1138,0.0293255119
1139,0.0391006832
1140,0.0488758516
1141,0.0391006832
1142,0.0391006832
1143,0.0391006832
1144,0.0293255119
1145,0.0293255119
1146,0.0293255119
1147,0.0195503416
1148,0.0195503416
1149,0.0195503416
1150,0.0195503416
1151,0.0293255119
1152,0.0293255119
1153,0.0293255119
1154,0.0293255119
1155,0.0293255119
1156,0.0293255119
1157,0.0293255119
1158,0.0293255119
1159,0.0293255119
1160,0.0195503416
1161,0.0195503416
1162,0.0195503416
1163,0.0293255119
1164,0.0293255119
1165,0.0293255119
1166,0.0293255119
1167,0.0293255119
1168,0.0293255119
1169,0.0195503416
1170,0.0195503416
1171,0.0293255119
1172,0.0293255119
1173,0.0293255119
1174,0.0293255119
1175,0.0195503416
1176,0.0293255119
1177,0.0195503416
1178,0.0586510229
1179,0.0879765415
1180,0.0684261989
1181,0.0684261989
1182,0.0586510229
1183,0.0488758516
1184,0.0488758516
1185,0.0488758516
1186,0.0488758516
1187,0.0488758516
1188,0.0391006832
1189,0.0391006832
1190,0.0391006832
1191,0.0293255119
1192,0.0293255119
1193,0.0293255119
1194,0.0391006832
1195,0.0488758516
1196,0.0488758516
1197,0.0586510229
1198,0.0488758516
1199,0.0488758516
1200,0.0391006832
1201,0.0391006832
1202,0.0391006832
1203,0.0391006832
1204,0.0488758516
1205,0.0391006832
1206,0.0586510229
1207,0.0684261989
1208,0.0684261989
1209,0.0586510229
1210,0.0488758516
1211,0.0488758516
1212,0.0586510229
1213,0.0586510229
1214,0.0586510229
1215,0.0488758516
1216,0.0586510229
1217,0.0684261989
1218,0.0684261989
1219,0.0586510229
1220,0.0586510229
1221,0.0488758516
1222,0.0488758516
1223,0.0488758516
1224,0.0391006832
1225,0.0293255119
1226,0.0293255119
1227,0.0293255119
1228,0.0293255119
1229,0.0293255119
1230,0.0293255119
1231,0.0293255119
1232,0.0293255119
1233,0.0293255119
1234,0.0293255119
1235,0.0488758516
1236,0.0684261989
1237,0.0782013654
1238,0.0879765415
1239,0.1075268864
1240,0.0879765415
1241,0.0879765415
1242,0.0782013654
1243,0.0684261989
1244,0.0684261989
1245,0.0586510229
1246,0.0586510229
1247,0.0782013654
1248,0.0879765415
1249,0.0977517032
1250,0.1075268864
1251,0.0977517032
1252,0.0977517032
1253,0.0977517032
1254,0.1173020482
1255,0.1270772218
1256,0.1368523955
1257,0.1661779165
1258,0.1466275596
1259,0.1368523955
1260,0.1759530782
1261,0.1857282543
1262,0.1759530782
1263,0.1661779165
1264,0.1466275596
1265,0.1368523955
1266,0.1270772218
1267,0.1173020482
1268,0.1075268864
1269,0.1075268864
1270,0.1270772218
1271,0.0977517032
1272,0.0879765415
1273,0.0879765415
1274,0.0782013654
1275,0.0684261989
1276,0.0684261989
1277,0.0488758516
1278,0.0488758516
1279,0.0391006832
1280,0.0293255119
1281,0.0293255119
1282,0.0195503416
1283,0.0195503416
1284,0.0293255119
1285,0.0391006832
1286,0.0391006832
1287,0.0391006832
1288,0.0391006832
1289,0.0488758516
1290,0.0488758516
1291,0.0488758516
1292,0.0391006832
1293,0.0391006832
1294,0.0293255119
1295,0.0293255119
1296,0.0293255119
1297,0.0195503416
1298,0.0195503416
1299,0.0293255119
1300,0.0195503416
1301,0.0195503416
1302,0.0195503416
1303,0.0195503416
1304,0.0195503416
1305,0.0097751703
1306,0.0097751703
1307,0.0097751703
1308,0.0097751703
1309,0.0097751703
1310,0.0000000000
1311,0.0097751703
1312,0.0195503416
1313,0.0195503416
1314,0.0195503416
1315,0.0293255119
1316,0.0391006832
1317,0.0488758516
1318,0.0488758516
1319,0.0586510229
1320,0.0488758516
1321,0.0488758516
1322,0.0488758516
1323,0.0391006832
1324,0.0391006832
1325,0.0488758516
1326,0.0391006832
1327,0.0391006832
1328,0.0391006832
1329,0.0488758516
1330,0.0488758516
1331,0.0391006832
1332,0.0391006832
1333,0.0391006832
1334,0.0391006832
1335,0.0391006832
1336,0.0488758516
1337,0.0488758516
1338,0.0391006832
1339,0.0391006832
1340,0.0391006832
1341,0.0293255119
1342,0.0293255119
1343,0.0293255119
1344,0.0293255119
1345,0.0293255119
1346,0.0293255119
1347,0.0293255119
1348,0.0293255119
1349,0.0293255119
1350,0.0195503416
1351,0.0195503416
1352,0.0195503416
1353,0.0195503416
1354,0.0195503416
1355,0.0293255119
1356,0.0195503416
1357,0.0293255119
1358,0.0195503416
1359,0.0195503416
1360,0.0293255119
1361,0.0195503416
1362,0.0293255119
1363,0.0293255119
1364,0.0391006832
1365,0.0391006832
1366,0.0488758516
1367,0.0488758516
1368,0.0488758516
1369,0.0684261989
1370,0.0684261989
1371,0.0488758516
1372,0.0488758516
1373,0.0488758516
1374,0.0488758516
1375,0.0488758516
1376,0.0391006832
1377,0.0293255119
1378,0.0293255119
1379,0.0293255119
1380,0.0391006832
1381,0.0488758516
1382,0.0391006832
1383,0.0293255119
1384,0.0391006832
1385,0.0488758516
1386,0.0586510229
1387,0.0684261989
1388,0.0684261989
1389,0.0684261989
1390,0.0586510229
1391,0.0488758516
1392,0.0391006832
1393,0.0391006832
1394,0.0293255119
1395,0.0293255119
1396,0.0293255119
1397,0.0293255119
1398,0.0488758516
1399,0.0391006832
1400,0.0488758516
1401,0.0391006832
1402,0.0293255119
1403,0.0293255119
1404,0.0391006832
1405,0.0293255119
1406,0.0293255119
1407,0.0195503416
1408,0.0195503416
1409,0.0097751703
1410,0.0097751703
1411,0.0195503416
1412,0.0097751703
1413,0.0195503416
1414,0.0195503416
1415,0.0195503416
1416,0.0293255119
1417,0.0293255119
1418,0.0391006832
1419,0.0488758516
1420,0.0488758516
1421,0.0586510229
1422,0.0586510229
1423,0.0586510229
1424,0.0586510229
1425,0.0586510229
1426,0.0586510229
1427,0.0684261989
1428,0.0684261989
1429,0.0684261989
1430,0.0586510229
1431,0.0488758516
1432,0.0488758516
1433,0.0488758516
1434,0.0488758516
1435,0.0488758516
1436,0.0586510229
1437,0.0879765415
1438,0.0782013654
1439,0.0879765415
1440,0.0977517032
1441,0.1173020482
1442,0.1173020482
1443,0.1270772218
1444,0.1270772218
1445,0.2150537729
1446,0.1857282543
1447,0.1759530782
1448,0.1564027309
1449,0.1368523955
1450,0.1270772218
1451,0.1075268864
1452,0.0977517032
1453,0.0977517032
1454,0.0879765415
1455,0.0684261989
1456,0.0684261989
1457,0.0684261989
1458,0.0684261989
1459,0.0586510229
1460,0.0586510229
1461,0.0586510229
1462,0.0586510229
1463,0.0586510229
1464,0.0586510229
1465,0.0488758516
1466,0.0586510229
1467,0.0488758516
1468,0.0488758516
1469,0.0684261989
1470,0.0586510229
1471,0.0488758516
1472,0.0391006832
1473,0.0391006832
1474,0.0391006832
1475,0.0391006832
1476,0.0488758516
1477,0.0391006832
1478,0.0293255119
1479,0.0293255119
1480,0.0293255119
1481,0.0391006832
1482,0.0391006832
1483,0.0293255119
1484,0.0293255119
1485,0.0195503416
1486,0.0195503416
1487,0.0097751703
1488,0.0097751703
1489,0.0195503416
1490,0.0097751703
1491,0.0097751703
1492,0.0097751703
1493,0.0097751703
1494,0.0097751703
1495,0.0097751703
1496,0.0097751703
1497,0.0195503416
1498,0.0195503416
1499,0.0097751703
1500,0.0195503416
1501,0.0097751703
1502,0.0097751703
1503,0.0195503416
1504,0.0195503416
1505,0.0097751703
1506,0.0097751703
1507,0.0097751703
1508,0.0097751703
1509,0.0195503416
1510,0.0097751703
1511,0.0097751703
1512,0.0097751703
1513,0.0097751703
1514,0.0097751703
1515,0.0097751703
1516,0.0097751703
1517,0.0097751703
1518,0.0097751703
1519,0.0195503416
1520,0.0195503416
1521,0.0097751703
1522,0.0195503416
1523,0.0097751703
1524,0.0097751703
1525,0.0097751703
1526,0.0097751703
1527,0.0097751703
1528,0.0097751703
1529,0.0097751703
1530,0.0097751703
1531,0.0097751703
1532,0.0097751703
1533,0.0097751703
1534,0.0097751703
1535,0.0097751703
1536,0.0097751703
1537,0.0195503416
1538,0.0195503416
1539,0.0195503416
1540,0.0097751703
1541,0.0195503416
1542,0.0195503416
1543,0.0195503416
1544,0.0195503416
1545,0.0195503416
1546,0.0293255119
1547,0.0293255119
1548,0.0293255119
1549,0.0293255119
1550,0.0195503416
1551,0.0293255119
1552,0.0195503416
1553,0.0195503416
1554,0.0293255119
1555,0.0488758516
1556,0.0391006832
1557,0.0391006832
1558,0.0391006832
1559,0.0391006832
1560,0.0293255119
1561,0.0195503416
1562,0.0195503416
1563,0.0195503416
1564,0.0293255119
1565,0.0293255119
1566,0.0293255119
1567,0.0293255119
1568,0.0293255119
1569,0.0293255119
1570,0.0293255119
1571,0.0293255119
1572,0.0391006832
1573,0.0488758516
1574,0.0391006832
1575,0.0293255119
1576,0.0488758516
1577,0.0586510229
1578,0.0586510229
1579,0.0586510229
1580,0.0586510229
1581,0.0586510229
1582,0.0586510229
1583,0.0488758516
1584,0.0488758516
1585,0.0391006832
1586,0.0488758516
1587,0.0488758516
1588,0.0586510229
1589,0.0488758516
1590,0.0391006832
1591,0.0488758516
1592,0.0391006832
1593,0.0391006832
1594,0.0293255119
1595,0.0293255119
1596,0.0195503416
1597,0.0195503416
1598,0.0195503416
1599,0.0195503416
1600,0.0195503416
1601,0.0293255119
1602,0.0293255119
1603,0.0293255119
1604,0.0293255119
1605,0.0293255119
1606,0.0293255119
1607,0.0391006832
1608,0.0488758516
1609,0.0684261989
1610,0.0684261989
1611,0.0586510229
1612,0.0684261989
1613,0.0684261989
1614,0.0586510229
1615,0.0684261989
1616,0.0782013654
1617,0.0684261989
1618,0.0684261989
1619,0.0684261989
1620,0.0782013654
1621,0.0879765415
1622,0.0879765415
1623,0.0782013654
1624,0.0879765415
1625,0.0879765415
1626,0.0879765415
1627,0.0879765415
1628,0.0879765415
1629,0.0879765415
1630,0.0977517032
1631,0.0977517032
1632,0.0977517032
1633,0.1661779165
1634,0.1466275596
1635,0.1466275596
1636,0.1466275596
1637,0.1270772218
1638,0.1075268864
1639,0.1075268864
1640,0.0977517032
1641,0.0977517032
1642,0.0782013654
1643,0.0684261989
1644,0.0684261989
1645,0.0684261989
1646,0.0488758516
1647,0.0488758516
1648,0.0391006832
1649,0.0293255119
1650,0.0293255119
1651,0.0293255119
1652,0.0293255119
1653,0.0293255119
1654,0.0293255119
1655,0.0195503416
1656,0.0195503416
1657,0.0195503416
1658,0.0195503416
1659,0.0195503416
1660,0.0293255119
1661,0.0293255119
1662,0.0195503416
1663,0.0097751703
1664,0.0097751703
1665,0.0097751703
1666,0.0293255119
1667,0.0293255119
1668,0.0195503416
1669,0.0293255119
1670,0.0488758516
1671,0.0488758516
1672,0.0391006832
1673,0.0293255119
1674,0.0293255119
1675,0.0195503416
1676,0.0195503416
1677,0.0195503416
1678,0.0195503416
1679,0.0195503416
1680,0.0195503416
1681,0.0195503416
1682,0.0097751703
1683,0.0097751703
1684,0.0097751703
1685,0.0097751703
1686,0.0097751703
1687,0.0097751703
1688,0.0097751703
1689,0.0097751703
1690,0.0195503416
1691,0.0195503416
1692,0.0293255119
1693,0.0293255119
1694,0.0293255119
1695,0.0293255119
1696,0.0293255119
1697,0.0293255119
1698,0.0195503416
1699,0.0195503416
1700,0.0195503416
1701,0.0195503416
1702,0.0195503416
1703,0.0097751703
1704,0.0195503416
1705,0.0195503416
1706,0.0195503416
1707,0.0195503416
1708,0.0391006832
1709,0.0586510229
1710,0.0488758516
1711,0.0488758516
1712,0.0391006832
1713,0.0293255119
1714,0.0293255119
1715,0.0293255119
1716,0.0195503416
1717,0.0097751703
1718,0.0097751703
1719,0.0097751703
1720,0.0097751703
1721,0.0097751703
1722,0.0097751703
1723,0.0097751703
1724,0.0195503416
1725,0.0195503416
1726,0.0293255119
1727,0.0195503416
1728,0.0195503416
1729,0.0195503416
1730,0.0195503416
1731,0.0195503416
1732,0.0195503416
1733,0.0195503416
1734,0.0195503416
1735,0.0195503416
1736,0.0195503416
1737,0.0195503416
1738,0.0293255119
1739,0.0391006832
1740,0.0586510229
1741,0.0684261989
1742,0.0488758516
1743,0.0391006832
1744,0.0488758516
1745,0.0488758516
1746,0.0488758516
1747,0.0391006832
1748,0.0488758516
1749,0.0391006832
1750,0.0293255119
1751,0.0293255119
1752,0.0293255119
1753,0.0195503416
1754,0.0293255119
1755,0.0391006832
1756,0.0684261989
1757,0.0684261989
1758,0.0782013654
1759,0.0782013654
1760,0.0684261989
1761,0.0586510229
1762,0.0684261989
1763,0.0684261989
1764,0.0684261989
1765,0.0586510229
1766,0.0488758516
1767,0.0488758516
1768,0.0391006832
1769,0.0391006832
1770,0.0391006832
1771,0.0391006832
1772,0.0293255119
1773,0.0293255119
1774,0.0293255119
1775,0.0293255119
1776,0.0293255119
1777,0.0293255119
1778,0.0293255119
1779,0.0293255119
1780,0.0195503416
1781,0.0195503416
1782,0.0195503416
1783,0.0195503416
1784,0.0195503416
1785,0.0293255119
1786,0.0293255119
1787,0.0293255119
1788,0.0391006832
1789,0.0293255119
1790,0.0293255119
1791,0.0391006832
1792,0.0391006832
1793,0.0391006832
1794,0.0488758516
1795,0.0391006832
1796,0.0391006832
1797,0.0488758516
1798,0.0391006832
1799,0.0391006832
1800,0.0391006832
1801,0.0391006832
1802,0.0488758516
1803,0.0488758516
1804,0.0684261989
1805,0.0684261989
1806,0.0586510229
1807,0.0684261989
1808,0.0782013654
1809,0.0879765415
1810,0.0977517032
1811,0.1173020482
1812,0.1173020482
1813,0.1173020482
1814,0.1955034160
1815,0.1759530782
1816,0.1564027309
1817,0.1466275596
1818,0.1270772218
1819,0.1270772218
1820,0.1270772218
1821,0.1075268864
1822,0.1075268864
1823,0.1173020482
1824,0.1075268864
1825,0.1075268864
1826,0.0977517032
1827,0.0782013654
1828,0.0782013654
1829,0.0684261989
1830,0.0684261989
1831,0.0586510229
1832,0.0488758516
1833,0.0391006832
1834,0.0293255119
1835,0.0293255119
1836,0.0293255119
1837,0.0195503416
1838,0.0195503416
1839,0.0195503416
1840,0.0195503416
1841,0.0293255119
1842,0.0391006832
1843,0.0293255119
1844,0.0293255119
1845,0.0293255119
1846,0.0293255119
1847,0.0293255119
1848,0.0293255119
1849,0.0293255119
1850,0.0293255119
1851,0.0293255119
1852,0.0195503416
1853,0.0195503416
1854,0.0195503416
1855,0.0195503416
1856,0.0097751703
1857,0.0097751703
1858,0.0097751703
1859,0.0097751703
1860,0.0097751703
1861,0.0097751703
1862,0.0097751703
1863,0.0097751703
1864,0.0195503416
1865,0.0195503416
1866,0.0195503416
1867,0.0195503416
1868,0.0097751703
1869,0.0097751703
1870,0.0097751703
1871,0.0097751703
1872,0.0097751703
1873,0.0097751703
1874,0.0097751703
1875,0.0195503416
1876,0.0097751703
1877,0.0097751703
1878,0.0097751703
1879,0.0195503416
1880,0.0195503416
1881,0.0195503416
1882,0.0097751703
1883,0.0097751703
1884,0.0097751703
1885,0.0195503416
1886,0.0097751703
1887,0.0195503416
1888,0.0097751703
1889,0.0097751703
1890,0.0195503416
1891,0.0097751703
1892,0.0097751703
1893,0.0097751703
1894,0.0195503416
1895,0.0195503416
1896,0.0195503416
1897,0.0195503416
1898,0.0195503416
1899,0.0195503416
1900,0.0097751703
1901,0.0097751703
1902,0.0097751703
1903,0.0097751703
1904,0.0000000000
1905,0.0097751703
1906,0.0195503416
1907,0.0195503416
1908,0.0195503416
1909,0.0195503416
1910,0.0097751703
1911,0.0097751703
1912,0.0195503416
1913,0.0195503416
1914,0.0293255119
1915,0.0195503416
1916,0.0195503416
1917,0.0097751703
1918,0.0195503416
1919,0.0195503416
1920,0.0195503416
1921,0.0195503416
1922,0.0195503416
1923,0.0195503416
1924,0.0195503416
1925,0.0293255119
1926,0.0293255119
1927,0.0293255119
1928,0.0293255119
1929,0.0293255119
1930,0.0195503416
1931,0.0293255119
1932,0.0293255119
1933,0.0293255119
1934,0.0293255119
1935,0.0293255119
1936,0.0293255119
1937,0.0391006832
1938,0.0488758516
1939,0.0391006832
1940,0.0391006832
1941,0.0293255119
1942,0.0293255119
1943,0.0391006832
1944,0.0391006832
1945,0.0488758516
1946,0.0586510229
1947,0.0586510229
1948,0.0488758516
1949,0.0586510229
1950,0.0488758516
1951,0.0488758516
1952,0.0488758516
1953,0.0488758516
1954,0.0488758516
1955,0.0586510229
1956,0.0586510229
1957,0.0391006832
1958,0.0488758516
1959,0.0391006832
1960,0.0293255119
1961,0.0293255119
1962,0.0293255119
1963,0.0293255119
1964,0.0195503416
1965,0.0195503416
1966,0.0097751703
1967,0.0097751703
1968,0.0097751703
1969,0.0097751703
1970,0.0195503416
1971,0.0195503416
1972,0.0195503416
1973,0.0195503416
1974,0.0293255119
1975,0.0293255119
1976,0.0293255119
1977,0.0293255119
1978,0.0391006832
1979,0.0391006832
1980,0.0391006832
1981,0.0391006832
1982,0.0391006832
1983,0.0391006832
1984,0.0293255119
1985,0.0391006832
1986,0.0391006832
1987,0.0391006832
1988,0.0391006832
1989,0.0391006832
1990,0.0488758516
1991,0.0488758516
1992,0.0684261989
1993,0.0684261989
1994,0.0684261989
1995,0.0879765415
1996,0.0879765415
1997,0.0782013654
1998,0.0782013654
1999,0.0977517032
2000,0.0977517032
2001,0.4887585639
2002,0.4301075458
2003,0.3616813421
2004,0.3323558330
2005,0.3030303001
2006,0.2639296054
2007,0.2443792819
2008,0.2248289346
2009,0.1955034160
2010,0.1759530782
2011,0.1564027309
2012,0.1564027309
2013,0.1564027309
2014,0.1466275596
2015,0.1564027309
2016,0.1466275596
2017,0.1466275596
2018,0.1466275596
2019,0.1466275596
2020,0.1466275596
2021,0.1564027309
2022,0.1857282543
2023,0.1661779165
2024,0.1466275596
2025,0.1368523955
2026,0.1466275596
2027,0.1368523955
2028,0.1368523955
2029,0.1368523955
2030,0.1368523955
2031,0.1466275596
2032,0.1466275596
2033,0.1368523955
2034,0.1564027309
2035,0.1564027309
2036,0.1564027309
2037,0.1466275596
2038,0.1368523955
2039,0.1270772218
2040,0.1173020482
2041,0.1075268864
2042,0.1075268864
2043,0.1075268864
2044,0.0977517032
2045,0.0782013654
2046,0.0879765415
2047,0.0879765415
2048,0.0977517032
2049,0.0977517032
2050,0.1075268864
2051,0.1270772218
2052,0.1270772218
2053,0.1270772218
2054,0.1075268864
2055,0.0977517032
2056,0.0879765415
2057,0.0782013654
2058,0.0782013654
2059,0.0684261989
2060,0.0782013654
2061,0.0782013654
2062,0.0977517032
2063,0.0879765415
2064,0.0782013654
2065,0.0782013654
2066,0.0782013654
2067,0.0782013654
2068,0.0782013654
2069,0.0782013654
2070,0.0684261989
2071,0.0879765415
2072,0.0977517032
2073,0.0782013654
2074,0.0782013654
2075,0.0879765415
2076,0.0977517032
2077,0.0977517032
2078,0.0977517032
2079,0.1075268864
2080,0.1075268864
2081,0.0977517032
2082,0.0977517032
2083,0.0977517032
2084,0.0977517032
2085,0.0977517032
2086,0.0977517032
2087,0.1075268864
2088,0.0977517032
2089,0.0879765415
2090,0.0879765415
2091,0.0684261989
2092,0.0684261989
2093,0.0684261989
2094,0.0586510229
2095,0.0782013654
2096,0.0684261989
2097,0.0684261989
2098,0.0684261989
2099,0.0782013654
2100,0.0782013654
2101,0.0684261989
2102,0.0586510229
2103,0.0586510229
2104,0.0488758516
2105,0.0488758516
2106,0.0586510229
2107,0.0684261989
2108,0.0586510229
2109,0.0586510229
2110,0.0488758516
2111,0.0488758516
2112,0.0586510229
2113,0.0586510229
2114,0.0586510229
2115,0.0586510229
2116,0.0586510229
2117,0.0488758516
2118,0.0488758516
2119,0.0488758516
2120,0.0391006832
2121,0.0488758516
2122,0.0391006832
2123,0.0391006832
2124,0.0391006832
2125,0.0488758516
2126,0.0488758516
2127,0.0391006832
2128,0.0391006832
2129,0.0391006832
2130,0.0293255119
2131,0.0195503416
2132,0.0195503416
2133,0.0293255119
2134,0.0293255119
2135,0.0293255119
2136,0.0293255119
2137,0.0293255119
2138,0.0293255119
2139,0.0293255119
2140,0.0293255119
2141,0.0293255119
2142,0.0293255119
2143,0.0293255119
2144,0.0293255119
2145,0.0293255119
2146,0.0293255119
2147,0.0391006832
2148,0.0488758516
2149,0.0391006832
2150,0.0391006832
2151,0.0391006832
2152,0.0391006832
2153,0.0488758516
2154,0.0488758516
2155,0.0488758516
2156,0.0488758516
2157,0.0488758516
2158,0.0488758516
2159,0.0586510229
2160,0.0586510229
2161,0.0684261989
2162,0.0586510229
2163,0.0586510229
2164,0.0586510229
2165,0.0586510229
2166,0.0684261989
2167,0.0782013654
2168,0.0782013654
2169,0.0684261989
2170,0.0586510229
2171,0.0586510229
2172,0.0684261989
2173,0.0782013654
2174,0.0782013654
2175,0.0879765415
2176,0.0879765415
2177,0.1075268864
2178,0.0977517032
2179,0.0879765415
2180,0.0879765415
2181,0.0879765415
2182,0.0977517032
2183,0.0879765415
2184,0.0879765415
2185,0.0879765415
2186,0.0879765415
2187,0.1075268864
2188,0.1075268864
2189,0.1075268864
2190,0.1075268864
2191,0.1075268864
2192,0.1173020482
2193,0.1173020482
2194,0.1075268864
2195,0.1075268864
2196,0.0977517032
2197,0.1075268864
2198,0.1075268864
2199,0.0977517032
2200,0.1075268864
2201,0.1075268864
2202,0.1075268864
2203,0.1075268864
2204,0.1075268864
2205,0.1173020482
2206,0.1173020482
2207,0.1075268864
2208,0.1173020482
2209,0.1173020482
2210,0.1270772218
2211,0.1368523955
2212,0.1270772218
2213,0.1270772218
2214,0.1368523955
2215,0.1466275596
2216,0.1466275596
2217,0.1368523955
2218,0.1661779165
2219,0.1466275596
2220,0.1368523955
2221,0.1466275596
2222,0.1368523955
2223,0.1466275596
2224,0.1466275596
2225,0.1466275596
2226,0.1564027309
2227,0.1466275596
2228,0.1466275596
2229,0.1270772218
2230,0.1173020482
2231,0.1173020482
2232,0.0977517032
2233,0.1075268864
2234,0.0977517032
2235,0.0879765415
2236,0.0977517032
2237,0.0782013654
2238,0.0782013654
2239,0.0782013654
2240,0.0977517032
2241,0.0879765415
2242,0.0782013654
2243,0.0684261989
2244,0.0586510229
2245,0.0684261989
2246,0.0488758516
2247,0.0488758516
2248,0.0586510229
2249,0.0488758516
2250,0.0586510229
2251,0.0488758516
2252,0.0488758516
2253,0.0488758516
2254,0.0488758516
2255,0.0488758516
2256,0.0391006832
2257,0.0391006832
2258,0.0391006832
2259,0.0586510229
2260,0.0586510229
2261,0.0488758516
2262,0.0391006832
2263,0.0488758516
2264,0.0391006832
2265,0.0488758516
2266,0.0391006832
2267,0.0391006832
2268,0.0391006832
2269,0.0391006832
2270,0.0488758516
2271,0.0391006832
2272,0.0586510229
2273,0.0488758516
2274,0.0586510229
2275,0.0488758516
2276,0.0391006832
2277,0.0391006832
2278,0.0488758516
2279,0.0586510229
2280,0.0488758516
2281,0.0488758516
2282,0.0488758516
2283,0.0488758516
2284,0.0488758516
2285,0.0488758516
2286,0.0488758516
2287,0.0488758516
2288,0.0488758516
2289,0.0586510229
2290,0.0586510229
2291,0.0586510229
2292,0.0586510229
2293,0.0488758516
2294,0.0488758516
2295,0.0488758516
2296,0.0488758516
2297,0.0488758516
2298,0.0488758516
2299,0.0488758516
2300,0.0391006832
2301,0.0391006832
2302,0.0488758516
2303,0.0391006832
2304,0.0391006832
2305,0.0293255119
2306,0.0293255119
2307,0.0391006832
2308,0.0293255119
2309,0.0293255119
2310,0.0391006832
2311,0.0293255119
2312,0.0293255119
2313,0.0293255119
2314,0.0293255119
2315,0.0293255119
2316,0.0293255119
2317,0.0293255119
2318,0.0293255119
2319,0.0293255119
2320,0.0293255119
2321,0.0391006832
2322,0.0391006832
2323,0.0391006832
2324,0.0293255119
2325,0.0293255119
2326,0.0293255119
2327,0.0293255119
2328,0.0391006832
2329,0.0293255119
2330,0.0391006832
2331,0.0293255119
2332,0.0293255119
2333,0.0391006832
2334,0.0391006832
2335,0.0293255119
2336,0.0293255119
2337,0.0293255119
2338,0.0391006832
2339,0.0293255119
2340,0.0293255119
2341,0.0293255119
2342,0.0293255119
2343,0.0391006832
2344,0.0391006832
2345,0.0391006832
2346,0.0391006832
2347,0.0293255119
2348,0.0293255119
2349,0.0293255119
2350,0.0293255119
2351,0.0293255119
2352,0.0293255119
2353,0.0293255119
2354,0.0293255119
2355,0.0293255119
2356,0.0293255119
2357,0.0293255119
2358,0.0293255119
2359,0.0293255119
2360,0.0391006832
2361,0.0391006832
2362,0.0391006832
2363,0.0391006832
2364,0.0391006832
2365,0.0488758516
2366,0.0586510229
2367,0.0586510229
2368,0.0586510229
2369,0.0586510229
2370,0.0586510229
2371,0.0488758516
2372,0.0586510229
2373,0.0586510229
2374,0.0684261989
2375,0.0782013654
2376,0.0977517032
2377,0.1270772218
2378,0.1270772218
2379,0.1173020482
2380,0.1173020482
2381,0.1270772218
2382,0.1075268864
2383,0.1075268864
2384,0.1075268864
2385,0.1075268864
2386,0.1173020482
2387,0.1270772218
2388,0.1270772218
2389,0.1173020482
2390,0.1270772218
2391,0.1270772218
2392,0.1173020482
2393,0.1173020482
2394,0.1173020482
2395,0.1075268864
2396,0.0977517032
2397,0.1173020482
2398,0.1173020482
2399,0.1173020482
2400,0.1173020482
2401,0.1173020482
2402,0.1075268864
2403,0.1075268864
2404,0.0977517032
2405,0.1075268864
2406,0.1173020482
2407,0.1075268864
2408,0.1270772218
2409,0.1075268864
2410,0.1075268864
2411,0.0977517032
2412,0.0977517032
2413,0.0879765415
2414,0.0977517032
2415,0.1075268864
2416,0.1075268864
2417,0.1270772218
2418,0.1270772218
2419,0.1368523955
2420,0.1466275596
2421,0.1368523955
2422,0.1270772218
2423,0.1270772218
2424,0.1075268864
2425,0.1075268864
2426,0.1075268864
2427,0.0977517032
2428,0.0782013654
2429,0.0782013654
2430,0.0782013654
2431,0.0684261989
2432,0.0586510229
2433,0.0782013654
2434,0.0684261989
2435,0.0684261989
2436,0.0879765415
2437,0.0782013654
2438,0.0879765415
2439,0.0879765415
2440,0.0879765415
2441,0.0879765415
2442,0.0879765415
2443,0.0782013654
2444,0.0684261989
2445,0.0684261989
2446,0.0684261989
2447,0.0586510229
2448,0.0684261989
2449,0.0586510229
2450,0.0586510229
2451,0.0684261989
2452,0.0586510229
2453,0.0586510229
2454,0.0586510229
2455,0.0586510229
2456,0.0586510229
2457,0.0586510229
2458,0.0586510229
2459,0.0586510229
2460,0.0488758516
2461,0.0586510229
2462,0.0684261989
2463,0.0586510229
2464,0.0586510229
2465,0.0684261989
2466,0.0488758516
2467,0.0586510229
2468,0.0586510229
2469,0.0586510229
2470,0.0586510229
2471,0.0782013654
2472,0.0977517032
2473,0.0879765415
2474,0.0977517032
2475,0.0977517032
2476,0.0879765415
2477,0.0879765415
2478,0.0879765415
2479,0.0977517032
2480,0.0782013654
2481,0.0684261989
2482,0.0684261989
2483,0.0684261989
2484,0.0782013654
2485,0.0684261989
2486,0.0684261989
2487,0.0684261989
2488,0.0586510229
2489,0.0586510229
2490,0.0586510229
2491,0.0586510229
2492,0.0488758516
2493,0.0488758516
2494,0.0488758516
2495,0.0488758516
2496,0.0391006832
2497,0.0488758516
2498,0.0488758516
2499,0.0488758516
2500,0.0391006832
2501,0.0391006832
2502,0.0293255119
2503,0.0293255119
2504,0.0391006832
2505,0.0391006832
2506,0.0391006832
2507,0.0391006832
2508,0.0391006832
2509,0.0391006832
2510,0.0293255119
2511,0.0391006832
2512,0.0391006832
2513,0.0391006832
2514,0.0391006832
2515,0.0293255119
2516,0.0293255119
2517,0.0391006832
2518,0.0391006832
2519,0.0391006832
2520,0.0391006832
2521,0.0293255119
2522,0.0391006832
2523,0.0391006832
2524,0.0391006832
2525,0.0488758516
2526,0.0488758516
2527,0.0391006832
2528,0.0391006832
2529,0.0391006832
2530,0.0391006832
2531,0.0391006832
2532,0.0391006832
2533,0.0391006832
2534,0.0391006832
2535,0.0293255119
2536,0.0293255119
2537,0.0293255119
2538,0.0391006832
2539,0.0391006832
2540,0.0391006832
2541,0.0488758516
2542,0.0488758516
2543,0.0488758516
2544,0.0586510229
2545,0.0684261989
2546,0.0586510229
2547,0.0684261989
2548,0.0782013654
2549,0.0684261989
2550,0.0684261989
2551,0.0586510229
2552,0.0684261989
2553,0.0782013654
2554,0.0782013654
2555,0.0879765415
2556,0.0977517032
2557,0.0977517032
2558,0.0977517032
2559,0.0879765415
2560,0.0879765415
2561,0.0782013654
2562,0.0977517032
2563,0.0879765415
2564,0.0879765415
2565,0.0879765415
2566,0.0977517032
2567,0.1075268864
2568,0.1173020482
2569,0.1075268864
2570,0.1075268864
2571,0.0977517032
2572,0.1075268864
2573,0.0977517032
2574,0.0977517032
2575,0.0879765415
2576,0.0879765415
2577,0.1075268864
2578,0.0977517032
2579,0.0977517032
2580,0.0977517032
2581,0.0977517032
2582,0.1075268864
2583,0.0977517032
2584,0.0977517032
2585,0.0782013654
2586,0.1173020482
2587,0.1270772218
2588,0.1075268864
2589,0.1075268864
2590,0.1075268864
2591,0.1173020482
2592,0.1173020482
2593,0.1173020482
2594,0.1173020482
2595,0.1173020482
2596,0.1173020482
2597,0.1075268864
2598,0.0879765415
2599,0.0879765415
2600,0.0879765415
2601,0.0879765415
2602,0.0782013654
2603,0.0684261989
2604,0.0879765415
2605,0.0879765415
2606,0.0879765415
2607,0.0879765415
2608,0.0782013654
2609,0.0879765415
2610,0.0782013654
2611,0.0684261989
2612,0.0879765415
2613,0.0879765415
2614,0.0977517032
2615,0.0782013654
2616,0.0782013654
2617,0.0782013654
2618,0.0782013654
2619,0.0684261989
2620,0.0684261989
2621,0.0586510229
2622,0.0488758516
2623,0.0488758516
2624,0.0488758516
2625,0.0586510229
2626,0.0488758516
2627,0.0488758516
2628,0.0488758516
2629,0.0488758516
2630,0.0586510229
2631,0.0488758516
2632,0.0586510229
2633,0.0684261989
2634,0.0586510229
2635,0.0684261989
2636,0.0684261989
2637,0.0684261989
2638,0.0782013654
2639,0.0684261989
2640,0.0684261989
2641,0.0586510229
2642,0.0488758516
2643,0.0391006832
2644,0.0488758516
2645,0.0488758516
2646,0.0488758516
2647,0.0391006832
2648,0.0391006832
2649,0.0391006832
2650,0.0391006832
2651,0.0391006832
2652,0.0293255119
2653,0.0293255119
2654,0.0391006832
2655,0.0293255119
2656,0.0293255119
2657,0.0293255119
2658,0.0293255119
2659,0.0293255119
2660,0.0391006832
2661,0.0391006832
2662,0.0391006832
2663,0.0391006832
2664,0.0391006832
2665,0.0391006832
2666,0.0391006832
2667,0.0391006832
2668,0.0391006832
2669,0.0391006832
2670,0.0293255119
2671,0.0293255119
2672,0.0293255119
2673,0.0195503416
2674,0.0293255119
2675,0.0293255119
2676,0.0293255119
2677,0.0293255119
2678,0.0195503416
2679,0.0293255119
2680,0.0293255119
2681,0.0293255119
2682,0.0293255119
2683,0.0293255119
2684,0.0391006832
2685,0.0293255119
2686,0.0391006832
2687,0.0391006832
2688,0.0391006832
2689,0.0391006832
2690,0.0391006832
2691,0.0293255119
2692,0.0293255119
2693,0.0293255119
2694,0.0391006832
2695,0.0293255119
2696,0.0293255119
2697,0.0293255119
2698,0.0293255119
2699,0.0293255119
2700,0.0293255119
2701,0.0293255119
2702,0.0195503416
2703,0.0293255119
2704,0.0293255119
2705,0.0195503416
2706,0.0293255119
2707,0.0195503416
2708,0.0195503416
2709,0.0195503416
2710,0.0195503416
2711,0.0293255119
2712,0.0293255119
2713,0.0391006832
2714,0.0293255119
2715,0.0293255119
2716,0.0391006832
2717,0.0391006832
2718,0.0391006832
2719,0.0391006832
2720,0.0293255119
2721,0.0293255119
2722,0.0391006832
2723,0.0391006832
2724,0.0391006832
2725,0.0391006832
2726,0.0391006832
2727,0.0391006832
2728,0.0391006832
2729,0.0391006832
2730,0.0391006832
2731,0.0488758516
2732,0.0488758516
2733,0.0488758516
2734,0.0586510229
2735,0.0586510229
2736,0.0488758516
2737,0.0488758516
2738,0.0488758516
2739,0.0488758516
2740,0.0586510229
2741,0.0586510229
2742,0.0586510229
2743,0.0488758516
2744,0.0488758516
2745,0.0586510229
2746,0.0782013654
2747,0.0782013654
2748,0.0782013654
2749,0.0879765415
2750,0.0977517032
2751,0.1173020482
2752,0.1075268864
2753,0.1075268864
2754,0.1173020482
2755,0.1173020482
2756,0.1270772218
2757,0.1368523955
2758,0.1368523955
2759,0.1368523955
2760,0.1270772218
2761,0.1173020482
2762,0.1270772218
2763,0.1270772218
2764,0.1075268864
2765,0.1075268864
2766,0.1173020482
2767,0.1075268864
2768,0.1173020482
2769,0.1075268864
2770,0.1173020482
2771,0.1270772218
2772,0.1173020482
2773,0.1075268864
2774,0.1173020482
2775,0.1270772218
2776,0.1173020482
2777,0.1270772218
2778,0.1270772218
2779,0.1466275596
2780,0.1466275596
2781,0.1466275596
2782,0.1466275596
2783,0.1368523955
2784,0.1368523955
2785,0.1368523955
2786,0.1466275596
2787,0.1368523955
2788,0.1270772218
2789,0.1368523955
2790,0.1368523955
2791,0.1466275596
2792,0.1270772218
2793,0.1075268864
2794,0.1173020482
2795,0.1075268864
2796,0.0977517032
2797,0.0879765415
2798,0.0782013654
2799,0.0782013654
2800,0.0879765415
2801,0.0782013654
2802,0.0684261989
2803,0.0684261989
2804,0.0684261989
2805,0.0684261989
2806,0.0586510229
2807,0.0488758516
2808,0.0586510229
2809,0.0586510229
2810,0.0586510229
2811,0.0488758516
2812,0.0488758516
2813,0.0488758516
2814,0.0391006832
2815,0.0391006832
2816,0.0391006832
2817,0.0391006832
2818,0.0391006832
2819,0.0391006832
2820,0.0391006832
2821,0.0391006832
2822,0.0293255119
2823,0.0293255119
2824,0.0293255119
2825,0.0293255119
2826,0.0293255119
2827,0.0293255119
2828,0.0391006832
2829,0.0391006832
2830,0.0391006832
2831,0.0391006832
2832,0.0488758516
2833,0.0586510229
2834,0.0586510229
2835,0.0488758516
2836,0.0586510229
2837,0.0684261989
2838,0.0684261989
2839,0.0879765415
2840,0.0879765415
2841,0.0782013654
2842,0.0782013654
2843,0.0879765415
2844,0.0977517032
2845,0.0879765415
2846,0.0879765415
2847,0.0977517032
2848,0.0879765415
2849,0.0879765415
2850,0.0977517032
2851,0.0977517032
2852,0.0879765415
2853,0.0879765415
2854,0.1075268864
2855,0.0879765415
2856,0.0879765415
2857,0.0782013654
2858,0.0684261989
2859,0.0684261989
2860,0.0782013654
2861,0.0782013654
2862,0.0684261989
2863,0.0782013654
2864,0.0782013654
2865,0.0782013654
2866,0.0684261989
2867,0.0586510229
2868,0.0684261989
2869,0.0586510229
2870,0.0488758516
2871,0.0488758516
2872,0.0586510229
2873,0.0684261989
2874,0.0684261989
2875,0.0684261989
2876,0.0782013654
2877,0.0684261989
2878,0.0684261989
2879,0.0684261989
2880,0.0586510229
2881,0.0488758516
2882,0.0488758516
2883,0.0488758516
2884,0.0488758516
2885,0.0586510229
2886,0.0684261989
2887,0.0586510229
2888,0.0586510229
2889,0.0488758516
2890,0.0488758516
2891,0.0391006832
2892,0.0391006832
2893,0.0391006832
2894,0.0391006832
2895,0.0391006832
2896,0.0391006832
2897,0.0488758516
2898,0.0488758516
2899,0.0488758516
2900,0.0391006832
2901,0.0488758516
2902,0.0488758516
2903,0.0488758516
2904,0.0391006832
2905,0.0391006832
2906,0.0488758516
2907,0.0391006832
2908,0.0488758516
2909,0.0488758516
2910,0.0586510229
2911,0.0586510229
2912,0.0586510229
2913,0.0684261989
2914,0.0684261989
2915,0.0684261989
2916,0.0977517032
2917,0.1075268864
2918,0.0977517032
2919,0.1075268864
2920,0.1075268864
2921,0.1270772218
2922,0.1270772218
2923,0.1466275596
2924,0.1368523955
2925,0.1173020482
2926,0.1173020482
2927,0.1173020482
2928,0.1173020482
2929,0.1368523955
2930,0.1270772218
2931,0.1270772218
2932,0.1368523955
2933,0.1368523955
2934,0.1270772218
2935,0.1368523955
2936,0.1368523955
2937,0.1270772218
2938,0.1466275596
2939,0.1270772218
2940,0.1173020482
2941,0.1075268864
2942,0.1173020482
2943,0.1075268864
2944,0.1075268864
2945,0.1368523955
2946,0.1466275596
2947,0.1270772218
2948,0.1173020482
2949,0.1368523955
2950,0.1564027309
2951,0.1466275596
2952,0.1564027309
2953,0.1466275596
2954,0.1466275596
2955,0.1466275596
2956,0.1466275596
2957,0.1466275596
2958,0.1368523955
2959,0.1270772218
2960,0.1466275596
2961,0.1466275596
2962,0.1466275596
2963,0.1368523955
2964,0.1270772218
2965,0.1368523955
2966,0.1368523955
2967,0.1270772218
2968,0.1173020482
2969,0.1270772218
2970,0.1368523955
2971,0.1368523955
2972,0.1368523955
2973,0.1466275596
2974,0.1270772218
2975,0.1075268864
2976,0.1173020482
2977,0.0977517032
2978,0.0879765415
2979,0.0684261989
2980,0.0586510229
2981,0.0879765415
2982,0.0879765415
2983,0.0782013654
2984,0.0977517032
2985,0.0879765415
2986,0.0782013654
2987,0.0977517032
2988,0.0977517032
2989,0.0879765415
2990,0.0879765415
2991,0.0977517032
2992,0.0879765415
2993,0.0782013654
2994,0.0782013654
2995,0.0684261989
2996,0.0684261989
2997,0.0586510229
2998,0.0586510229
2999,0.0488758516
3000,0.0586510229
3001,1.9354838371
3002,1.5444769859
3003,1.2316715717
3004,0.9872922897
3005,0.8015640258
3006,0.6353860855
3007,0.5083088874
3008,0.4105571746
3009,0.3323558330
3010,0.2737047910
3011,0.2248289346
3012,0.1857282543
3013,0.1661779165
3014,0.1466275596
3015,0.1270772218
3016,0.1075268864
3017,0.0977517032
3018,0.0879765415
3019,0.0879765415
3020,0.0782013654
3021,0.0684261989
3022,0.0684261989
3023,0.0684261989
3024,0.0684261989
3025,0.0586510229
3026,0.0586510229
3027,0.0586510229
3028,0.0684261989
3029,0.0879765415
3030,0.0782013654
3031,0.0879765415
3032,0.0879765415
3033,0.0782013654
3034,0.0782013654
3035,0.0782013654
3036,0.0782013654
3037,0.0879765415
3038,0.0782013654
3039,0.0782013654
3040,0.0782013654
3041,0.0684261989
3042,0.0586510229
3043,0.0488758516
3044,0.0586510229
3045,0.0391006832
3046,0.0488758516
3047,0.0488758516
3048,0.0391006832
3049,0.0391006832
3050,0.0293255119
3051,0.0391006832
3052,0.0391006832
3053,0.0391006832
3054,0.0488758516
3055,0.0391006832
3056,0.0391006832
3057,0.0391006832
3058,0.0391006832
3059,0.0586510229
3060,0.0586510229
3061,0.0586510229
3062,0.0586510229
3063,0.0586510229
3064,0.0586510229
3065,0.0586510229
3066,0.0586510229
3067,0.0586510229
3068,0.0586510229
3069,0.0488758516
3070,0.0488758516
3071,0.0391006832
3072,0.0391006832
3073,0.0488758516
3074,0.0293255119
3075,0.0391006832
3076,0.0586510229
3077,0.0586510229
3078,0.0586510229
3079,0.0488758516
3080,0.0488758516
3081,0.0488758516
3082,0.0391006832
3083,0.0488758516
3084,0.0293255119
3085,0.0391006832
3086,0.0391006832
3087,0.0293255119
3088,0.0293255119
3089,0.0488758516
3090,0.0586510229
3091,0.0782013654
3092,0.0977517032
3093,0.0879765415
3094,0.0782013654
3095,0.0782013654
3096,0.0684261989
3097,0.0684261989
3098,0.0782013654
3099,0.0684261989
3100,0.0684261989
3101,0.0586510229
3102,0.0782013654
3103,0.0782013654
3104,0.0782013654
3105,0.0782013654
3106,0.0782013654
3107,0.0879765415
3108,0.0977517032
3109,0.0879765415
3110,0.0977517032
3111,0.0977517032
3112,0.0977517032
3113,0.0879765415
3114,0.0977517032
3115,0.1075268864
3116,0.1075268864
3117,0.1270772218
3118,0.1075268864
3119,0.1075268864
3120,0.1173020482
3121,0.1173020482
3122,0.1173020482
3123,0.1173020482
3124,0.1270772218
3125,0.1173020482
3126,0.1075268864
3127,0.1173020482
3128,0.1466275596
3129,0.1368523955
3130,0.1466275596
3131,0.1368523955
3132,0.1368523955
3133,0.1368523955
3134,0.1368523955
3135,0.1466275596
3136,0.1368523955
3137,0.1466275596
3138,0.1661779165
3139,0.1857282543
3140,0.1857282543
3141,0.1759530782
3142,0.1857282543
3143,0.2443792819
3144,0.2248289346
3145,0.1857282543
3146,0.1955034160
3147,0.1857282543
3148,0.1661779165
3149,0.1759530782
3150,0.1857282543
3151,0.1759530782
3152,0.1955034160
3153,0.2052785873
3154,0.1955034160
3155,0.1759530782
3156,0.1759530782
3157,0.1466275596
3158,0.1466275596
3159,0.1466275596
3160,0.1270772218
3161,0.1173020482
3162,0.1173020482
3163,0.1368523955
3164,0.1173020482
3165,0.1075268864
3166,0.1270772218
3167,0.1270772218
3168,0.1075268864
3169,0.0977517032
3170,0.0977517032
3171,0.0879765415
3172,0.0782013654
3173,0.0684261989
3174,0.0782013654
3175,0.0684261989
3176,0.0684261989
3177,0.0879765415
3178,0.0879765415
3179,0.0782013654
3180,0.1075268864
3181,0.1466275596
3182,0.1759530782
3183,0.1661779165
3184,0.1955034160
3185,0.1955034160
3186,0.1955034160
3187,0.1857282543
3188,0.1857282543
3189,0.1759530782
3190,0.1759530782
3191,0.1759530782
3192,0.1759530782
3193,0.1661779165
3194,0.1368523955
3195,0.1466275596
3196,0.1270772218
3197,0.1368523955
3198,0.1368523955
3199,0.1173020482
3200,0.1075268864
3201,0.1075268864
3202,0.1075268864
3203,0.1075268864
3204,0.1075268864
3205,0.0977517032
3206,0.0879765415
3207,0.0782013654
3208,0.0684261989
3209,0.0879765415
3210,0.0782013654
3211,0.0684261989
3212,0.0586510229
3213,0.0684261989
3214,0.0586510229
3215,0.0586510229
3216,0.0488758516
3217,0.0488758516
3218,0.0488758516
3219,0.0684261989
3220,0.0586510229
3221,0.0586510229
3222,0.0684261989
3223,0.0782013654
3224,0.0782013654
3225,0.0684261989
3226,0.0782013654
3227,0.0684261989
3228,0.0586510229
3229,0.0586510229
3230,0.0488758516
3231,0.0488758516
3232,0.0488758516
3233,0.0586510229
3234,0.0488758516
3235,0.0488758516
3236,0.0488758516
3237,0.0488758516
3238,0.0488758516
3239,0.0586510229
3240,0.0586510229
3241,0.0488758516
3242,0.0488758516
3243,0.0488758516
3244,0.0391006832
3245,0.0488758516
3246,0.0293255119
3247,0.0391006832
3248,0.0391006832
3249,0.0391006832
3250,0.0391006832
3251,0.0488758516
3252,0.0488758516
3253,0.0488758516
3254,0.0488758516
3255,0.0488758516
3256,0.0488758516
3257,0.0488758516
3258,0.0488758516
3259,0.0684261989
3260,0.0782013654
3261,0.0684261989
3262,0.0684261989
3263,0.0684261989
3264,0.0586510229
3265,0.0684261989
3266,0.0684261989
3267,0.0879765415
3268,0.0879765415
3269,0.0782013654
3270,0.0879765415
3271,0.1270772218
3272,0.1368523955
3273,0.1270772218
3274,0.1075268864
3275,0.1075268864
3276,0.1270772218
3277,0.1368523955
3278,0.1368523955
3279,0.1368523955
3280,0.1466275596
3281,0.1466275596
3282,0.1466275596
3283,0.1270772218
3284,0.1173020482
3285,0.1173020482
3286,0.1075268864
3287,0.1466275596
3288,0.1466275596
3289,0.1173020482
3290,0.1173020482
3291,0.1075268864
3292,0.1270772218
3293,0.1270772218
3294,0.1368523955
3295,0.1368523955
3296,0.1466275596
3297,0.1270772218
3298,0.1368523955
3299,0.1368523955
3300,0.1368523955
3301,0.1466275596
3302,0.1857282543
3303,0.1759530782
3304,0.1857282543
3305,0.1857282543
3306,0.1759530782
3307,0.1955034160
3308,0.1759530782
3309,0.1955034160
3310,0.2052785873
3311,0.2052785873
3312,0.2052785873
3313,0.2052785873
3314,0.2052785873
3315,0.2150537729
3316,0.2150537729
3317,0.2248289346
3318,0.2346040964
3319,0.2052785873
3320,0.1759530782
3321,0.1857282543
3322,0.1857282543
3323,0.1661779165
3324,0.1564027309
3325,0.1759530782
3326,0.1564027309
3327,0.1368523955
3328,0.1564027309
3329,0.1368523955
3330,0.1173020482
3331,0.1173020482
3332,0.1173020482
3333,0.1075268864
3334,0.0977517032
3335,0.0977517032
3336,0.0977517032
3337,0.0879765415
3338,0.0977517032
3339,0.0879765415
3340,0.0977517032
3341,0.1759530782
3342,0.2443792819
3343,0.2150537729
3344,0.2248289346
3345,0.2052785873
3346,0.1857282543
3347,0.1759530782
3348,0.1368523955
3349,0.1270772218
3350,0.1173020482
3351,0.0977517032
3352,0.0977517032
3353,0.0879765415
3354,0.0782013654
3355,0.0684261989
3356,0.0782013654
3357,0.0684261989
3358,0.0586510229
3359,0.0684261989
3360,0.0586510229
3361,0.0488758516
3362,0.0488758516
3363,0.0586510229
3364,0.0586510229
3365,0.0684261989
3366,0.0684261989
3367,0.0684261989
3368,0.0684261989
3369,0.0684261989
3370,0.0684261989
3371,0.0586510229
3372,0.0586510229
3373,0.0586510229
3374,0.0488758516
3375,0.0586510229
3376,0.0488758516
3377,0.0586510229
3378,0.0488758516
3379,0.0488758516
3380,0.0488758516
3381,0.0391006832
3382,0.0391006832
3383,0.0293255119
3384,0.0391006832
3385,0.0391006832
3386,0.0391006832
3387,0.0488758516
3388,0.0488758516
3389,0.0391006832
3390,0.0391006832
3391,0.0586510229
3392,0.0586510229
3393,0.0488758516
3394,0.0391006832
3395,0.0488758516
3396,0.0488758516
3397,0.0488758516
3398,0.0391006832
3399,0.0488758516
3400,0.0488758516
3401,0.0488758516
3402,0.0488758516
3403,0.0488758516
3404,0.0391006832
3405,0.0391006832
3406,0.0391006832
3407,0.0293255119
3408,0.0293255119
3409,0.0293255119
3410,0.0391006832
3411,0.0391006832
3412,0.0391006832
3413,0.0488758516
3414,0.0488758516
3415,0.0488758516
3416,0.0488758516
3417,0.0391006832
3418,0.0391006832
3419,0.0488758516
3420,0.0488758516
3421,0.0488758516
3422,0.0586510229
3423,0.0586510229
3424,0.0586510229
3425,0.0586510229
3426,0.0488758516
3427,0.0488758516
3428,0.0488758516
3429,0.0488758516
3430,0.0488758516
3431,0.0488758516
3432,0.0488758516
3433,0.0488758516
3434,0.0488758516
3435,0.0488758516
3436,0.0488758516
3437,0.0488758516
3438,0.0488758516
3439,0.0488758516
3440,0.0488758516
3441,0.0586510229
3442,0.0586510229
3443,0.0684261989
3444,0.0684261989
3445,0.0684261989
3446,0.0684261989
3447,0.0782013654
3448,0.0879765415
3449,0.0977517032
3450,0.1173020482
3451,0.1270772218
3452,0.1173020482
3453,0.1075268864
3454,0.1075268864
3455,0.0977517032
3456,0.1075268864
3457,0.1173020482
3458,0.1368523955
3459,0.1270772218
3460,0.1075268864
3461,0.1173020482
3462,0.1173020482
3463,0.1270772218
3464,0.1173020482
3465,0.1368523955
3466,0.1270772218
3467,0.1368523955
3468,0.1466275596
3469,0.1466275596
3470,0.1466275596
3471,0.1857282543
3472,0.1661779165
3473,0.1564027309
3474,0.1564027309
3475,0.1661779165
3476,0.1466275596
3477,0.1564027309
3478,0.1466275596
3479,0.1368523955
3480,0.1270772218
3481,0.1564027309
3482,0.1564027309
3483,0.1857282543
3484,0.1661779165
3485,0.1661779165
3486,0.1661779165
3487,0.1564027309
3488,0.1466275596
3489,0.1661779165
3490,0.2150537729
3491,0.1857282543
3492,0.1857282543
3493,0.2052785873
3494,0.2150537729
3495,0.2737047910
3496,0.2541544437
3497,0.2443792819
3498,0.2737047910
3499,0.2443792819
3500,0.2150537729
3501,0.1759530782
3502,0.1564027309
3503,0.1368523955
3504,0.1270772218
3505,0.1173020482
3506,0.1173020482
3507,0.1270772218
3508,0.1173020482
3509,0.1270772218
3510,0.1368523955
3511,0.1368523955
3512,0.1466275596
3513,0.1368523955
3514,0.1564027309
3515,0.2052785873
3516,0.2248289346
3517,0.2541544437
3518,0.2541544437
3519,0.2541544437
3520,0.2248289346
3521,0.1955034160
3522,0.1857282543
3523,0.1564027309
3524,0.1368523955
3525,0.1173020482
3526,0.1075268864
3527,0.0977517032
3528,0.0879765415
3529,0.0782013654
3530,0.0879765415
3531,0.0782013654
3532,0.0879765415
3533,0.0879765415
3534,0.0782013654
3535,0.0684261989
3536,0.0879765415
3537,0.0977517032
3538,0.0879765415
3539,0.0879765415
3540,0.0782013654
3541,0.0977517032
3542,0.0879765415
3543,0.0879765415
3544,0.0879765415
3545,0.0782013654
3546,0.0684261989
3547,0.0684261989
3548,0.0782013654
3549,0.0684261989
3550,0.0586510229
3551,0.0586510229
3552,0.0586510229
3553,0.0586510229
3554,0.0488758516
3555,0.0488758516
3556,0.0488758516
3557,0.0391006832
3558,0.0391006832
3559,0.0293255119
3560,0.0391006832
3561,0.0293255119
3562,0.0293255119
3563,0.0293255119
3564,0.0391006832
3565,0.0391006832
3566,0.0293255119
3567,0.0293255119
3568,0.0391006832
3569,0.0391006832
3570,0.0391006832
3571,0.0391006832
3572,0.0391006832
3573,0.0391006832
3574,0.0488758516
3575,0.0391006832
3576,0.0391006832
3577,0.0488758516
3578,0.0488758516
3579,0.0488758516
3580,0.0488758516
3581,0.0488758516
3582,0.0488758516
3583,0.0488758516
3584,0.0391006832
3585,0.0391006832
3586,0.0391006832
3587,0.0391006832
3588,0.0391006832
3589,0.0391006832
3590,0.0488758516
3591,0.0586510229
3592,0.0684261989
3593,0.0586510229
3594,0.0586510229
3595,0.0488758516
3596,0.0488758516
3597,0.0488758516
3598,0.0586510229
3599,0.0586510229
3600,0.0586510229
3601,1.3098728656
3602,1.2414467334
3603,1.0068426132
3604,0.8015640258
3605,0.6353860855
3606,0.5083088874
3607,0.4105571746
3608,0.3323558330
3609,0.2737047910
3610,0.2150537729
3611,0.1857282543
3612,0.1466275596
3613,0.1270772218
3614,0.1270772218
3615,0.1075268864
3616,0.0879765415
3617,0.0782013654
3618,0.0684261989
3619,0.0684261989
3620,0.0586510229
3621,0.0488758516
3622,0.0488758516
3623,0.0488758516
3624,0.0586510229
3625,0.0488758516
3626,0.0488758516
3627,0.0391006832
3628,0.0488758516
3629,0.0488758516
3630,0.0488758516
3631,0.0488758516
3632,0.0586510229
3633,0.0586510229
3634,0.0586510229
3635,0.0684261989
3636,0.0782013654
3637,0.0782013654
3638,0.0879765415
3639,0.0879765415
3640,0.0879765415
3641,0.0879765415
3642,0.0879765415
3643,0.0977517032
3644,0.0977517032
3645,0.0879765415
3646,0.1075268864
3647,0.1075268864
3648,0.1075268864
3649,0.1270772218
3650,0.1368523955
3651,0.1466275596
3652,0.1368523955
3653,0.1466275596
3654,0.1466275596
3655,0.1368523955
3656,0.1466275596
3657,0.1466275596
3658,0.1564027309
3659,0.1661779165
3660,0.1564027309
3661,0.1466275596
3662,0.1368523955
3663,0.1466275596
3664,0.1368523955
3665,0.1466275596
3666,0.1661779165
3667,0.1661779165
3668,0.1466275596
3669,0.1759530782
3670,0.1661779165
3671,0.1466275596
3672,0.1564027309
3673,0.1368523955
3674,0.1466275596
3675,0.1368523955
3676,0.1466275596
3677,0.1564027309
3678,0.1368523955
3679,0.1173020482
3680,0.1075268864
3681,0.1075268864
3682,0.1173020482
3683,0.1173020482
3684,0.1075268864
3685,0.1075268864
3686,0.1173020482
3687,0.1270772218
3688,0.1270772218
3689,0.1173020482
3690,0.1466275596
3691,0.1466275596
3692,0.1368523955
3693,0.1173020482
3694,0.1075268864
3695,0.1173020482
3696,0.1075268864
3697,0.0879765415
3698,0.0782013654
3699,0.0586510229
3700,0.0586510229
3701,0.0684261989
3702,0.0586510229
3703,0.0488758516
3704,0.0586510229
3705,0.0586510229
3706,0.0488758516
3707,0.0488758516
3708,0.0488758516
3709,0.0488758516
3710,0.0391006832
3711,0.0391006832
3712,0.0488758516
3713,0.0488758516
3714,0.0488758516
3715,0.0684261989
3716,0.0782013654
3717,0.0586510229
3718,0.0586510229
3719,0.0586510229
3720,0.0684261989
3721,0.0782013654
3722,0.0782013654
3723,0.0782013654
3724,0.0879765415
3725,0.0977517032
3726,0.0782013654
3727,0.0782013654
3728,0.0684261989
3729,0.0684261989
3730,0.0586510229
3731,0.0586510229
3732,0.0488758516
3733,0.0488758516
3734,0.0488758516
3735,0.0488758516
3736,0.0488758516
3737,0.0488758516
3738,0.0488758516
3739,0.0488758516
3740,0.0488758516
3741,0.0391006832
3742,0.0488758516
3743,0.0488758516
3744,0.0391006832
3745,0.0391006832
3746,0.0293255119
3747,0.0293255119
3748,0.0293255119
3749,0.0293255119
3750,0.0391006832
3751,0.0293255119
3752,0.0293255119
3753,0.0293255119
3754,0.0195503416
3755,0.0293255119
3756,0.0293255119
3757,0.0293255119
3758,0.0293255119
3759,0.0391006832
3760,0.0391006832
3761,0.0293255119
3762,0.0293255119
3763,0.0293255119
3764,0.0293255119
3765,0.0293255119
3766,0.0293255119
3767,0.0488758516
3768,0.0391006832
3769,0.0391006832
3770,0.0391006832
3771,0.0391006832
3772,0.0391006832
3773,0.0391006832
3774,0.0391006832
3775,0.0488758516
3776,0.0488758516
3777,0.0488758516
3778,0.0488758516
3779,0.0586510229
3780,0.0488758516
3781,0.0488758516
3782,0.0488758516
3783,0.0391006832
3784,0.0391006832
3785,0.0488758516
3786,0.0488758516
3787,0.0391006832
3788,0.0488758516
3789,0.0488758516
3790,0.0488758516
3791,0.0391006832
3792,0.0488758516
3793,0.0488758516
3794,0.0586510229
3795,0.0488758516
3796,0.0586510229
3797,0.0684261989
3798,0.0684261989
3799,0.0684261989
3800,0.0684261989
3801,0.0684261989
3802,0.0684261989
3803,0.0586510229
3804,0.0586510229
3805,0.0488758516
3806,0.0586510229
3807,0.0684261989
3808,0.0684261989
3809,0.0684261989
3810,0.0782013654
3811,0.0782013654
3812,0.0782013654
3813,0.0977517032
3814,0.0977517032
3815,0.0879765415
3816,0.0879765415
3817,0.0977517032
3818,0.1075268864
3819,0.1173020482
3820,0.1075268864
3821,0.1075268864
3822,0.1075268864
3823,0.1075268864
3824,0.1075268864
3825,0.0977517032
3826,0.0879765415
3827,0.0977517032
3828,0.1075268864
3829,0.1075268864
3830,0.1270772218
3831,0.1368523955
3832,0.1173020482
3833,0.1173020482
3834,0.1466275596
3835,0.1368523955
3836,0.1270772218
3837,0.1270772218
3838,0.1270772218
3839,0.1270772218
3840,0.1075268864
3841,0.1075268864
3842,0.1075268864
3843,0.1173020482
3844,0.1075268864
3845,0.1075268864
3846,0.1173020482
3847,0.1173020482
3848,0.1173020482
3849,0.1173020482
3850,0.1368523955
3851,0.1270772218
3852,0.1466275596
3853,0.1368523955
3854,0.1270772218
3855,0.1173020482
3856,0.1075268864
3857,0.1075268864
3858,0.1173020482
3859,0.0977517032
3860,0.1075268864
3861,0.1173020482
3862,0.1173020482
3863,0.1075268864
3864,0.1173020482
3865,0.0977517032
3866,0.1075268864
3867,0.1075268864
3868,0.0977517032
3869,0.0977517032
3870,0.0977517032
3871,0.0879765415
3872,0.0782013654
3873,0.0684261989
3874,0.0684261989
3875,0.0684261989
3876,0.0586510229
3877,0.0586510229
3878,0.0586510229
3879,0.0684261989
3880,0.0684261989
3881,0.0977517032
3882,0.0879765415
3883,0.0782013654
3884,0.0879765415
3885,0.0879765415
3886,0.0684261989
3887,0.0684261989
3888,0.0782013654
3889,0.0684261989
3890,0.0586510229
3891,0.0782013654
3892,0.0782013654
3893,0.0684261989
3894,0.0684261989
3895,0.0586510229
3896,0.0782013654
3897,0.0782013654
3898,0.0782013654
3899,0.0684261989
3900,0.0586510229
3901,0.0684261989
3902,0.0684261989
3903,0.0586510229
3904,0.0684261989
3905,0.0586510229
3906,0.0586510229
3907,0.0586510229
3908,0.0586510229
3909,0.0586510229
3910,0.0586510229
3911,0.0586510229
3912,0.0488758516
3913,0.0488758516
3914,0.0488758516
3915,0.0586510229
3916,0.0488758516
3917,0.0586510229
3918,0.0488758516
3919,0.0488758516
3920,0.0488758516
3921,0.0586510229
3922,0.0586510229
3923,0.0586510229
3924,0.0488758516
3925,0.0488758516
3926,0.0488758516
3927,0.0391006832
3928,0.0391006832
3929,0.0488758516
3930,0.0586510229
3931,0.0488758516
3932,0.0488758516
3933,0.0488758516
3934,0.0391006832
3935,0.0488758516
3936,0.0488758516
3937,0.0391006832
3938,0.0391006832
3939,0.0391006832
3940,0.0488758516
3941,0.0391006832
3942,0.0391006832
3943,0.0488758516
3944,0.0391006832
3945,0.0488758516
3946,0.0586510229
3947,0.0586510229
3948,0.0586510229
3949,0.0488758516
3950,0.0488758516
3951,0.0488758516
3952,0.0488758516
3953,0.0488758516
3954,0.0391006832
3955,0.0391006832
3956,0.0391006832
3957,0.0391006832
3958,0.0391006832
3959,0.0293255119
3960,0.0391006832
3961,0.0488758516
3962,0.0391006832
3963,0.0488758516
3964,0.0488758516
3965,0.0488758516
3966,0.0488758516
3967,0.0488758516
3968,0.0488758516
3969,0.0488758516
3970,0.0488758516
3971,0.0586510229
3972,0.0586510229
3973,0.0684261989
3974,0.0879765415
3975,0.1075268864
3976,0.1270772218
3977,0.1466275596
3978,0.8895405769
3979,0.8895405769
3980,0.7135874748
3981,0.5767350673
3982,0.4692081928
3983,0.3910068321
3984,0.3323558330
3985,0.2737047910
3986,0.2150537729
3987,0.1955034160
3988,0.1661779165
3989,0.1564027309
3990,0.1466275596
3991,0.1270772218
3992,0.1075268864
3993,0.1075268864
3994,0.1173020482
3995,0.0977517032
3996,0.0879765415
3997,0.0879765415
3998,0.0782013654
3999,0.0782013654
0,0.0879765415
1,1.5249266624
2,1.2512218952
3,1.0263929367
4,0.8602150917
5,0.7233626842
6,0.6256109237
7,0.5278592109
8,0.4594330310
9,0.3910068321
10,0.3519061565
11,0.3030303001
12,0.2541544437
13,0.2248289346
14,0.1955034160
15,0.1759530782
16,0.1661779165
17,0.1661779165
18,0.1759530782
19,0.1857282543
20,0.1857282543
21,0.1857282543
22,0.1661779165
23,0.1466275596
24,0.1857282543
25,0.1661779165
26,0.1564027309
27,0.1368523955
28,0.1270772218
29,0.1173020482
30,0.1173020482
31,0.0977517032
32,0.0977517032
33,0.0977517032
34,0.0977517032
35,0.0879765415
36,0.0879765415
37,0.0879765415
38,0.0977517032
39,0.1173020482
40,0.1173020482
41,0.1075268864
42,0.0977517032
43,0.0879765415
44,0.0684261989
45,0.0586510229
46,0.0586510229
47,0.0488758516
48,0.0391006832
49,0.0391006832
50,0.0293255119
51,0.0293255119
52,0.0195503416
53,0.0195503416
54,0.0195503416
55,0.0195503416
56,0.0293255119
57,0.0391006832
58,0.0684261989
59,0.0782013654
60,0.0684261989
61,0.0684261989
62,0.0586510229
63,0.0488758516
64,0.0488758516
65,0.0391006832
66,0.0391006832
67,0.0293255119
68,0.0293255119
69,0.0195503416
70,0.0195503416
71,0.0195503416
72,0.0097751703
73,0.0097751703
74,0.0097751703
75,0.0097751703
76,0.0195503416
77,0.0293255119
78,0.0293255119
79,0.0293255119
80,0.0391006832
81,0.0488758516
82,0.0488758516
83,0.0391006832
84,0.0488758516
85,0.0391006832
86,0.0391006832
87,0.0391006832
88,0.0391006832
89,0.0391006832
90,0.0391006832
91,0.0488758516
92,0.0488758516
93,0.0488758516
94,0.0488758516
95,0.0488758516
96,0.0586510229
97,0.0586510229
98,0.0586510229
99,0.0586510229
100,0.0586510229
101,0.0586510229
102,0.0488758516
103,0.0488758516
104,0.0488758516
105,0.0488758516
106,0.0488758516
107,0.0488758516
108,0.0488758516
109,0.0488758516
110,0.0391006832
111,0.0391006832
112,0.0488758516
113,0.0488758516
114,0.0391006832
115,0.0391006832
116,0.0391006832
117,0.0391006832
118,0.0391006832
119,0.0391006832
120,0.0391006832
121,0.0488758516
122,0.0488758516
123,0.0488758516
124,0.0488758516
125,0.0391006832
126,0.0586510229
127,0.0586510229
128,0.0488758516
129,0.0586510229
130,0.0488758516
131,0.0488758516
132,0.0391006832
133,0.0488758516
134,0.0391006832
135,0.0391006832
136,0.0586510229
137,0.0488758516
138,0.0586510229
139,0.0586510229
140,0.0488758516
141,0.0391006832
142,0.0391006832
143,0.0293255119
144,0.0293255119
145,0.0293255119
146,0.0293255119
147,0.0293255119
148,0.0195503416
149,0.0195503416
150,0.0293255119
151,0.0391006832
152,0.0391006832
153,0.0293255119
154,0.0195503416
155,0.0391006832
156,0.0391006832
157,0.0391006832
158,0.0684261989
159,0.0782013654
160,0.0684261989
161,0.0586510229
162,0.1270772218
163,0.1759530782
164,0.2150537729
165,0.2150537729
166,0.2346040964
167,0.2052785873
168,0.1759530782
169,0.1466275596
170,0.1173020482
171,0.0977517032
172,0.0684261989
173,0.0684261989
174,0.0488758516
175,0.0488758516
176,0.0391006832
177,0.0391006832
178,0.0391006832
179,0.0391006832
180,0.0391006832
181,0.0488758516
182,0.0488758516
183,0.0586510229
184,0.0586510229
185,0.0684261989
186,0.0586510229
187,0.0586510229
188,0.0684261989
189,0.0879765415
190,0.1075268864
191,0.1075268864
192,0.0977517032
193,0.0977517032
194,0.1075268864
195,0.1075268864
196,0.1075268864
197,0.1075268864
198,0.1075268864
199,0.1075268864
200,0.0977517032
201,0.0977517032
202,0.1075268864
203,0.1466275596
204,0.1759530782
205,0.1759530782
206,0.1955034160
207,0.2052785873
208,0.2248289346
209,0.2248289346
210,0.2443792819
211,0.2346040964
212,0.2541544437
213,0.2443792819
214,0.2248289346
215,0.2248289346
216,0.2150537729
217,0.1955034160
218,0.1857282543
219,0.1857282543
220,0.1759530782
221,0.1857282543
222,0.1857282543
223,0.1857282543
224,0.1857282543
225,0.1661779165
226,0.1466275596
227,0.1270772218
228,0.1075268864
229,0.0977517032
230,0.0879765415
231,0.0684261989
232,0.0586510229
233,0.0488758516
234,0.0391006832
235,0.0293255119
236,0.0293255119
237,0.0293255119
238,0.0293255119
239,0.0293255119
240,0.0391006832
241,0.0391006832
242,0.0488758516
243,0.0488758516
244,0.0391006832
245,0.0293255119
246,0.0195503416
247,0.0195503416
248,0.0293255119
249,0.0195503416
250,0.0293255119
251,0.0293255119
252,0.0293255119
253,0.0293255119
254,0.0195503416
255,0.0195503416
256,0.0195503416
257,0.0097751703
258,0.0195503416
259,0.0195503416
260,0.0195503416
261,0.0488758516
262,0.0684261989
263,0.0586510229
264,0.0488758516
265,0.0391006832
266,0.0293255119
267,0.0293255119
268,0.0293255119
269,0.0391006832
270,0.0293255119
271,0.0293255119
272,0.0293255119
273,0.0293255119
274,0.0195503416
275,0.0293255119
276,0.0684261989
277,0.0684261989
278,0.0684261989
279,0.0586510229
280,0.0586510229
281,0.0586510229
282,0.0586510229
283,0.0488758516
284,0.0391006832
285,0.0391006832
286,0.0293255119
287,0.0293255119
288,0.0195503416
289,0.0293255119
290,0.0293255119
291,0.0195503416
292,0.0293255119
293,0.0195503416
294,0.0195503416
295,0.0293255119
296,0.0293255119
297,0.0293255119
298,0.0293255119
299,0.0195503416
300,0.0195503416
301,0.0293255119
302,0.0195503416
303,0.0293255119
304,0.0293255119
305,0.0195503416
306,0.0195503416
307,0.0195503416
308,0.0195503416
309,0.0293255119
310,0.0195503416
311,0.0195503416
312,0.0195503416
313,0.0195503416
314,0.0293255119
315,0.0293255119
316,0.0293255119
317,0.0293255119
318,0.0293255119
319,0.0293255119
320,0.0293255119
321,0.0293255119
322,0.0293255119
323,0.0391006832
324,0.0391006832
325,0.0488758516
326,0.0391006832
327,0.0391006832
328,0.0391006832
329,0.0293255119
330,0.0293255119
331,0.0391006832
332,0.0391006832
333,0.0586510229
334,0.0488758516
335,0.0391006832
336,0.0586510229
337,0.0488758516
338,0.0391006832
339,0.0391006832
340,0.0293255119
341,0.0293255119
342,0.0391006832
343,0.0391006832
344,0.0488758516
345,0.0586510229
346,0.0488758516
347,0.0488758516
348,0.0391006832
349,0.0391006832
350,0.0293255119
351,0.0782013654
352,0.0879765415
353,0.0977517032
354,0.1564027309
355,0.1955034160
356,0.2052785873
357,0.2052785873
358,0.2443792819
359,0.2248289346
360,0.1857282543
361,0.1466275596
362,0.1173020482
363,0.0977517032
364,0.0977517032
365,0.1759530782
366,0.1857282543
367,0.1564027309
368,0.1466275596
369,0.1173020482
370,0.1075268864
371,0.0977517032
372,0.0879765415
373,0.0879765415
374,0.0782013654
375,0.0684261989
376,0.0586510229
377,0.0586510229
378,0.0586510229
379,0.0684261989
380,0.0684261989
381,0.0684261989
382,0.0684261989
383,0.0684261989
384,0.0782013654
385,0.0782013654
386,0.0879765415
387,0.0879765415
388,0.0977517032
389,0.0977517032
390,0.0879765415
391,0.0879765415
392,0.0977517032
393,0.1075268864
394,0.1075268864
395,0.1173020482
396,0.1270772218
397,0.1368523955
398,0.1368523955
399,0.1466275596
400,0.1564027309
401,0.1466275596
402,0.1564027309
403,0.1368523955
404,0.1368523955
405,0.1661779165
406,0.1466275596
407,0.1466275596
408,0.1368523955
409,0.1270772218
410,0.1270772218
411,0.1270772218
412,0.1173020482
413,0.1173020482
414,0.1075268864
415,0.0977517032
416,0.0879765415
417,0.0879765415
418,0.0977517032
419,0.1075268864
420,0.0977517032
421,0.0879765415
422,0.0879765415
423,0.0684261989
424,0.0586510229
425,0.0488758516
426,0.0488758516
427,0.0391006832
428,0.0391006832
429,0.0293255119
430,0.0195503416
431,0.0293255119
432,0.0195503416
433,0.0195503416
434,0.0195503416
435,0.0195503416
436,0.0293255119
437,0.0293255119
438,0.0488758516
439,0.0488758516
440,0.0586510229
441,0.0586510229
442,0.0488758516
443,0.0684261989
444,0.1173020482
445,0.1270772218
446,0.1173020482
447,0.0879765415
448,0.0782013654
449,0.0684261989
450,0.0684261989
451,0.0586510229
452,0.0488758516
453,0.0488758516
454,0.0488758516
455,0.0488758516
456,0.0391006832
457,0.0391006832
458,0.0391006832
459,0.0586510229
460,0.0488758516
461,0.0586510229
462,0.0586510229
463,0.0488758516
464,0.0586510229
465,0.0586510229
466,0.0488758516
467,0.0586510229
468,0.0488758516
469,0.0488758516
470,0.0488758516
471,0.0586510229
472,0.0488758516
473,0.0488758516
474,0.0586510229
475,0.0586510229
476,0.0488758516
477,0.0488758516
478,0.0488758516
479,0.0488758516
480,0.0586510229
481,0.0488758516
482,0.0488758516
483,0.0586510229
484,0.0586510229
485,0.0488758516
486,0.0488758516
487,0.0488758516
488,0.0488758516
489,0.0391006832
490,0.0391006832
491,0.0391006832
492,0.0391006832
493,0.0488758516
494,0.0488758516
495,0.0488758516
496,0.0391006832
497,0.0488758516
498,0.0488758516
499,0.0488758516
500,0.0488758516
501,0.0488758516
502,0.0488758516
503,0.0391006832
504,0.0488758516
505,0.0488758516
506,0.0391006832
507,0.0391006832
508,0.0391006832
509,0.0391006832
510,0.0293255119
511,0.0391006832
512,0.0293255119
513,0.0293255119
514,0.0293255119
515,0.0293255119
516,0.0195503416
517,0.0391006832
518,0.0391006832
519,0.0293255119
520,0.0293255119
521,0.0293255119
522,0.0293255119
523,0.0293255119
524,0.0293255119
525,0.0293255119
526,0.0391006832
527,0.0391006832
528,0.0391006832
529,0.0488758516
530,0.0586510229
531,0.0586510229
532,0.0586510229
533,0.0488758516
534,0.0488758516
535,0.0391006832
536,0.0293255119
537,0.0293255119
538,0.0293255119
539,0.0293255119
540,0.0195503416
541,0.0293255119
542,0.0293255119
543,0.0488758516
544,0.0879765415
545,0.0782013654
546,0.0684261989
547,0.1075268864
548,0.1075268864
549,0.0977517032
550,0.0977517032
551,0.0977517032
552,0.0977517032
553,0.0977517032
554,0.1075268864
555,0.1270772218
556,0.1368523955
557,0.1759530782
558,0.1759530782
559,0.1564027309
560,0.1270772218
561,0.1075268864
562,0.0879765415
563,0.0879765415
564,0.0879765415
565,0.1075268864
566,0.1075268864
567,0.0977517032
568,0.0879765415
569,0.0977517032
570,0.0977517032
571,0.0879765415
572,0.0782013654
573,0.0782013654
574,0.0782013654
575,0.0782013654
576,0.1075268864
577,0.0977517032
578,0.1075268864
579,0.1173020482
580,0.1270772218
581,0.1270772218
582,0.1270772218
583,0.1368523955
584,0.1270772218
585,0.1368523955
586,0.1466275596
587,0.1466275596
588,0.1466275596
589,0.1564027309
590,0.1759530782
591,0.1759530782
592,0.1857282543
593,0.1955034160
594,0.1955034160
595,0.1857282543
596,0.1857282543
597,0.1857282543
598,0.1759530782
599,0.1759530782
600,0.1466275596
601,0.1857282543
602,0.1759530782
603,0.1564027309
604,0.1564027309
605,0.1368523955
606,0.1270772218
607,0.1173020482
608,0.1075268864
609,0.1075268864
610,0.1075268864
611,0.1075268864
612,0.0879765415
613,0.0879765415
614,0.0977517032
615,0.1075268864
616,0.1270772218
617,0.1173020482
618,0.1270772218
619,0.1075268864
620,0.0879765415
621,0.0879765415
622,0.0684261989
623,0.0586510229
624,0.0488758516
625,0.0391006832
626,0.0293255119
627,0.0293255119
628,0.0195503416
629,0.0195503416
630,0.0097751703
631,0.0097751703
632,0.0097751703
633,0.0195503416
634,0.0097751703
635,0.0097751703
636,0.0195503416
637,0.0195503416
638,0.0195503416
639,0.0195503416
640,0.0195503416
641,0.0195503416
642,0.0195503416
643,0.0195503416
644,0.0195503416
645,0.0195503416
646,0.0097751703
647,0.0097751703
648,0.0097751703
649,0.0097751703
650,0.0195503416
651,0.0488758516
652,0.0488758516
653,0.0391006832
654,0.0391006832
655,0.0293255119
656,0.0293255119
657,0.0195503416
658,0.0195503416
659,0.0195503416
660,0.0195503416
661,0.0195503416
662,0.0293255119
663,0.0293255119
664,0.0293255119
665,0.0391006832
666,0.0391006832
667,0.0586510229
668,0.0684261989
669,0.0684261989
670,0.0684261989
671,0.0684261989
672,0.0684261989
673,0.0684261989
674,0.0684261989
675,0.0684261989
676,0.0684261989
677,0.0586510229
678,0.0586510229
679,0.0488758516
680,0.0488758516
681,0.0488758516
682,0.0391006832
683,0.0391006832
684,0.0391006832
685,0.0391006832
686,0.0391006832
687,0.0391006832
688,0.0586510229
689,0.0488758516
690,0.0488758516
691,0.0488758516
692,0.0488758516
693,0.0488758516
694,0.0391006832
695,0.0488758516
696,0.0391006832
697,0.0293255119
698,0.0293255119
699,0.0391006832
700,0.0293255119
701,0.0391006832
702,0.0391006832
703,0.0293255119
704,0.0293255119
705,0.0293255119
706,0.0293255119
707,0.0293255119
708,0.0293255119
709,0.0195503416
710,0.0195503416
711,0.0293255119
712,0.0195503416
713,0.0195503416
714,0.0293255119
715,0.0391006832
716,0.0391006832
717,0.0391006832
718,0.0293255119
719,0.0391006832
720,0.0391006832
721,0.0391006832
722,0.0293255119
723,0.0293255119
724,0.0293255119
725,0.0293255119
726,0.0488758516
727,0.0586510229
728,0.0488758516
729,0.0391006832
730,0.0293255119
731,0.0488758516
732,0.1075268864
733,0.1075268864
734,0.1368523955
735,0.1466275596
736,0.1759530782
737,0.2248289346
738,0.1955034160
739,0.2150537729
740,0.1857282543
741,0.1466275596
742,0.1173020482
743,0.0977517032
744,0.0879765415
745,0.0782013654
746,0.0586510229
747,0.0488758516
748,0.0391006832
749,0.0293255119
750,0.0195503416
751,0.0097751703
752,0.0097751703
753,0.0097751703
754,0.0000000000
755,0.0097751703
756,0.0097751703
757,0.0195503416
758,0.0195503416
759,0.0195503416
760,0.0195503416
761,0.0293255119
762,0.0293255119
763,0.0293255119
764,0.0293255119
765,0.0293255119
766,0.0488758516
767,0.0391006832
768,0.0488758516
769,0.0488758516
770,0.0586510229
771,0.0586510229
772,0.0586510229
773,0.0488758516
774,0.0488758516
775,0.0586510229
776,0.0586510229
777,0.0586510229
778,0.0586510229
779,0.0684261989
780,0.0684261989
781,0.0782013654
782,0.0879765415
783,0.0879765415
784,0.0977517032
785,0.1075268864
786,0.1173020482
787,0.1270772218
788,0.1368523955
789,0.1368523955
790,0.1466275596
791,0.1564027309
792,0.1759530782
793,0.1661779165
794,0.1661779165
795,0.1661779165
796,0.1759530782
797,0.1564027309
798,0.1564027309
799,0.1564027309
800,0.1466275596
801,0.1270772218
802,0.1270772218
803,0.1173020482
804,0.1075268864
805,0.1075268864
806,0.1075268864
807,0.1075268864
808,0.1173020482
809,0.1270772218
810,0.1270772218
811,0.1075268864
812,0.0977517032
813,0.0879765415
814,0.0684261989
815,0.0586510229
816,0.0586510229
817,0.0586510229
818,0.0684261989
819,0.0684261989
820,0.0684261989
821,0.0879765415
822,0.0782013654
823,0.0782013654
824,0.0977517032
825,0.1075268864
826,0.1173020482
827,0.1270772218
828,0.1368523955
829,0.1270772218
830,0.1270772218
831,0.1075268864
832,0.0879765415
833,0.0879765415
834,0.0879765415
835,0.0684261989
836,0.0684261989
837,0.0586510229
838,0.0586510229
839,0.0488758516
840,0.0391006832
841,0.0488758516
842,0.0488758516
843,0.0488758516
844,0.0488758516
845,0.0488758516
846,0.0684261989
847,0.0586510229
848,0.0782013654
849,0.0684261989
850,0.0684261989
851,0.0684261989
852,0.0782013654
853,0.0684261989
854,0.0586510229
855,0.0488758516
856,0.0488758516
857,0.0488758516
858,0.0488758516
859,0.0391006832
860,0.0391006832
861,0.0391006832
862,0.0488758516
863,0.0391006832
864,0.0488758516
865,0.0488758516
866,0.0391006832
867,0.0391006832
868,0.0293255119
869,0.0293255119
870,0.0391006832
871,0.0293255119
872,0.0293255119
873,0.0391006832
874,0.0293255119
875,0.0391006832
876,0.0391006832
877,0.0293255119
878,0.0488758516
879,0.0391006832
880,0.0391006832
881,0.0391006832
882,0.0391006832
883,0.0488758516
884,0.0488758516
885,0.0293255119
886,0.0391006832
887,0.0488758516
888,0.0391006832
889,0.0391006832
890,0.0293255119
891,0.0293255119
892,0.0293255119
893,0.0293255119
894,0.0293255119
895,0.0293255119
896,0.0293255119
897,0.0195503416
898,0.0195503416
899,0.0293255119
900,0.0293255119
901,0.0293255119
902,0.0195503416
903,0.0195503416
904,0.0293255119
905,0.0391006832
906,0.0488758516
907,0.0488758516
908,0.0391006832
909,0.0391006832
910,0.0488758516
911,0.0391006832
912,0.0391006832
913,0.0488758516
914,0.0391006832
915,0.0391006832
916,0.0391006832
917,0.0293255119
918,0.0293255119
919,0.0293255119
920,0.0293255119
921,0.0293255119
922,0.0391006832
923,0.0488758516
924,0.0586510229
925,0.0586510229
926,0.0586510229
927,0.0782013654
928,0.0684261989
929,0.0586510229
930,0.0488758516
931,0.0391006832
932,0.0293255119
933,0.0391006832
934,0.0684261989
935,0.0684261989
936,0.0684261989
937,0.0586510229
938,0.0488758516
939,0.0488758516
940,0.0684261989
941,0.0977517032
942,0.1173020482
943,0.1075268864
944,0.0977517032
945,0.1270772218
946,0.1173020482
947,0.0977517032
948,0.0879765415
949,0.0684261989
950,0.0684261989
951,0.0684261989
952,0.0684261989
953,0.0684261989
954,0.0586510229
955,0.0684261989
956,0.0684261989
957,0.0684261989
958,0.0684261989
959,0.0586510229
960,0.0684261989
961,0.0684261989
962,0.0782013654
963,0.0879765415
964,0.0879765415
965,0.0977517032
966,0.1075268864
967,0.1075268864
968,0.1270772218
969,0.1466275596
970,0.1368523955
971,0.1270772218
972,0.1368523955
973,0.1368523955
974,0.1466275596
975,0.1564027309
976,0.1661779165
977,0.1759530782
978,0.1661779165
979,0.1661779165
980,0.1564027309
981,0.1955034160
982,0.1759530782
983,0.1661779165
984,0.1564027309
985,0.1368523955
986,0.1270772218
987,0.1173020482
988,0.1270772218
989,0.1270772218
990,0.1173020482
991,0.1075268864
992,0.0977517032
993,0.1075268864
994,0.1075268864
995,0.1075268864
996,0.1075268864
997,0.0879765415
998,0.0782013654
999,0.0684261989
1000,0.0782013654
1001,0.8113391876
1002,0.6353860855
1003,0.5083088874
1004,0.4007820129
1005,0.3323558330
1006,0.2737047910
1007,0.2248289346
1008,0.1857282543
1009,0.1564027309
1010,0.1270772218
1011,0.1075268864
1012,0.0879765415
1013,0.0782013654
1014,0.0684261989
1015,0.0488758516
1016,0.0391006832
1017,0.0391006832
1018,0.0293255119
1019,0.0293255119
1020,0.0195503416
1021,0.0195503416
1022,0.0097751703
1023,0.0097751703
1024,0.0195503416
1025,0.0097751703
1026,0.0097751703
1027,0.0097751703
1028,0.0097751703
1029,0.0097751703
1030,0.0097751703
1031,0.0097751703
1032,0.0097751703
1033,0.0097751703
1034,0.0097751703
1035,0.0097751703
1036,0.0097751703
1037,0.0097751703
1038,0.0195503416
1039,0.0195503416
1040,0.0195503416
1041,0.0293255119
1042,0.0293255119
1043,0.0391006832
1044,0.0293255119
1045,0.0391006832
1046,0.0293255119
1047,0.0293255119
1048,0.0293255119
1049,0.0195503416
1050,0.0293255119
1051,0.0293255119
1052,0.0293255119
1053,0.0293255119
1054,0.0293255119
1055,0.0293255119
1056,0.0293255119
1057,0.0293255119
1058,0.0293255119
1059,0.0195503416
1060,0.0195503416
1061,0.0391006832
1062,0.0195503416
1063,0.0293255119
1064,0.0195503416
1065,0.0195503416
1066,0.0195503416
1067,0.0097751703
1068,0.0195503416
1069,0.0195503416
1070,0.0195503416
1071,0.0293255119
1072,0.0293255119
1073,0.0293255119
1074,0.0293255119
1075,0.0293255119
1076,0.1270772218
1077,0.1173020482
1078,0.1075268864
1079,0.0977517032
1080,0.0782013654
1081,0.0684261989
1082,0.0684261989
1083,0.0684261989
1084,0.0684261989
1085,0.0488758516
1086,0.0586510229
1087,0.0488758516
1088,0.0684261989
1089,0.0684261989
1090,0.0684261989
1091,0.0684261989
1092,0.0586510229
1093,0.0488758516
1094,0.0488758516
1095,0.0586510229
1096,0.0488758516
1097,0.0488758516
1098,0.0488758516
1099,0.1173020482
1100,0.0977517032
1101,0.0782013654
1102,0.0684261989
1103,0.0586510229
1104,0.0488758516
1105,0.0488758516
1106,0.0391006832
1107,0.0391006832
1108,0.0293255119
1109,0.0293255119
1110,0.0195503416
1111,0.0195503416
1112,0.0293255119
1113,0.0195503416
1114,0.0195503416
1115,0.0097751703
1116,0.0195503416
1117,0.0195503416
1118,0.0293255119
1119,0.0391006832
1120,0.0391006832
1121,0.0391006832
1122,0.0488758516
1123,0.0684261989
1124,0.0782013654
1125,0.0684261989
1126,0.0684261989
1127,0.0879765415
1128,0.0977517032
1129,0.0879765415
1130,0.0782013654
1131,0.0879765415
1132,0.1075268864
1133,0.1173020482
1134,0.1173020482
1135,0.1075268864
1136,0.0977517032
1137,0.1270772218
1138,0.1270772218
1139,0.1368523955
1140,0.1368523955
1141,0.1466275596
1142,0.1368523955
1143,0.1466275596
1144,0.1368523955
1145,0.1466275596
1146,0.1466275596
1147,0.1368523955
1148,0.1368523955
1149,0.1173020482
1150,0.1173020482
1151,0.1173020482
1152,0.1857282543
1153,0.1759530782
1154,0.1661779165
1155,0.1857282543
1156,0.1759530782
1157,0.1661779165
1158,0.1564027309
1159,0.1759530782
1160,0.1564027309
1161,0.1368523955
1162,0.1270772218
1163,0.1173020482
1164,0.1173020482
1165,0.1075268864
1166,0.0977517032
1167,0.0879765415
1168,0.0879765415
1169,0.0782013654
1170,0.0782013654
1171,0.0684261989
1172,0.0684261989
1173,0.0586510229
1174,0.0391006832
1175,0.0391006832
1176,0.0293255119
1177,0.0293255119
1178,0.0293255119
1179,0.0293255119
1180,0.0293255119
1181,0.0293255119
1182,0.0391006832
1183,0.0586510229
1184,0.0586510229
1185,0.0488758516
1186,0.0391006832
1187,0.0488758516
1188,0.0391006832
1189,0.0293255119
1190,0.0293255119
1191,0.0195503416
1192,0.0195503416
1193,0.0097751703
1194,0.0097751703
1195,0.0195503416
1196,0.0195503416
1197,0.0293255119
1198,0.0195503416
1199,0.0195503416
1200,0.0097751703
1201,0.0097751703
1202,0.0097751703
1203,0.0097751703
1204,0.0195503416
1205,0.0293255119
1206,0.0293255119
1207,0.0293255119
1208,0.0391006832
1209,0.0293255119
1210,0.0293255119
1211,0.0293255119
1212,0.0391006832
1213,0.0391006832
1214,0.0391006832
1215,0.0391006832
1216,0.0391006832
1217,0.0391006832
1218,0.0391006832
1219,0.0391006832
1220,0.0293255119
1221,0.0293255119
1222,0.0293255119
1223,0.0293255119
1224,0.0293255119
1225,0.0293255119
1226,0.0293255119
1227,0.0293255119
1228,0.0293255119
1229,0.0195503416
1230,0.0195503416
1231,0.0195503416
1232,0.0195503416
1233,0.0293255119
1234,0.0293255119
1235,0.0195503416
1236,0.0195503416
1237,0.0195503416
1238,0.0195503416
1239,0.0195503416
1240,0.0293255119
1241,0.0195503416
1242,0.0293255119
1243,0.0293255119
1244,0.0195503416
1245,0.0293255119
1246,0.0195503416
1247,0.0293255119
1248,0.0293255119
1249,0.0293255119
1250,0.0977517032
1251,0.0977517032
1252,0.0977517032
1253,0.0879765415
1254,0.0684261989
1255,0.0684261989
1256,0.0586510229
1257,0.0488758516
1258,0.0488758516
1259,0.0391006832
1260,0.0391006832
1261,0.0391006832
1262,0.0391006832
1263,0.0293255119
1264,0.0293255119
1265,0.0293255119
1266,0.0391006832
1267,0.0391006832
1268,0.0293255119
1269,0.0293255119
1270,0.0488758516
1271,0.0488758516
1272,0.0488758516
1273,0.0488758516
1274,0.0684261989
1275,0.0782013654
1276,0.0586510229
1277,0.0488758516
1278,0.0488758516
1279,0.0391006832
1280,0.0488758516
1281,0.0391006832
1282,0.0391006832
1283,0.0488758516
1284,0.0488758516
1285,0.0391006832
1286,0.0391006832
1287,0.0488758516
1288,0.0293255119
1289,0.0195503416
1290,0.0195503416
1291,0.0195503416
1292,0.0097751703
1293,0.0097751703
1294,0.0097751703
1295,0.0097751703
1296,0.0097751703
1297,0.0195503416
1298,0.0195503416
1299,0.0293255119
1300,0.0488758516
1301,0.0586510229
1302,0.0684261989
1303,0.0684261989
1304,0.0684261989
1305,0.0684261989
1306,0.0586510229
1307,0.0586510229
1308,0.0684261989
1309,0.0684261989
1310,0.0586510229
1311,0.0586510229
1312,0.0782013654
1313,0.0684261989
1314,0.0782013654
1315,0.0782013654
1316,0.0879765415
1317,0.0977517032
1318,0.0879765415
1319,0.1075268864
1320,0.1270772218
1321,0.1466275596
1322,0.1368523955
1323,0.1564027309
1324,0.1564027309
1325,0.1857282543
1326,0.2248289346
1327,0.2150537729
1328,0.2932551193
1329,0.2639296054
1330,0.2541544437
1331,0.2150537729
1332,0.1955034160
1333,0.1857282543
1334,0.1955034160
1335,0.1759530782
1336,0.1661779165
1337,0.1759530782
1338,0.1466275596
1339,0.1466275596
1340,0.1368523955
1341,0.1270772218
1342,0.1368523955
1343,0.1270772218
1344,0.1075268864
1345,0.0879765415
1346,0.0684261989
1347,0.0684261989
1348,0.0488758516
1349,0.0391006832
1350,0.0293255119
1351,0.0293255119
1352,0.0293255119
1353,0.0293255119
1354,0.0195503416
1355,0.0293255119
1356,0.0293255119
1357,0.0293255119
1358,0.0293255119
1359,0.0195503416
1360,0.0293255119
1361,0.0293255119
1362,0.0293255119
1363,0.0293255119
1364,0.0195503416
1365,0.0195503416
1366,0.0097751703
1367,0.0097751703
1368,0.0195503416
1369,0.0195503416
1370,0.0097751703
1371,0.0097751703
1372,0.0097751703
1373,0.0097751703
1374,0.0097751703
1375,0.0097751703
1376,0.0097751703
1377,0.0293255119
1378,0.0293255119
1379,0.0293255119
1380,0.0391006832
1381,0.0293255119
1382,0.0293255119
1383,0.0195503416
1384,0.0195503416
1385,0.0195503416
1386,0.0195503416
1387,0.0195503416
1388,0.0195503416
1389,0.0195503416
1390,0.0097751703
1391,0.0195503416
1392,0.0195503416
1393,0.0195503416
1394,0.0195503416
1395,0.0097751703
1396,0.0097751703
1397,0.0097751703
1398,0.0097751703
1399,0.0195503416
1400,0.0097751703
1401,0.0097751703
1402,0.0097751703
1403,0.0097751703
1404,0.0097751703
1405,0.0097751703
1406,0.0097751703
1407,0.0097751703
1408,0.0097751703
1409,0.0195503416
1410,0.0195503416
1411,0.0195503416
1412,0.0195503416
1413,0.0097751703
1414,0.0195503416
1415,0.0195503416
1416,0.0195503416
1417,0.0195503416
1418,0.0195503416
1419,0.0195503416
1420,0.0195503416
1421,0.0195503416
1422,0.0195503416
1423,0.0195503416
1424,0.0097751703
1425,0.0195503416
1426,0.0391006832
1427,0.0488758516
1428,0.0586510229
1429,0.0488758516
1430,0.0391006832
1431,0.0391006832
1432,0.0293255119
1433,0.0293255119
1434,0.0195503416
1435,0.0195503416
1436,0.0195503416
1437,0.0293255119
1438,0.0293255119
1439,0.0293255119
1440,0.0293255119
1441,0.0391006832
1442,0.0391006832
1443,0.0391006832
1444,0.0293255119
1445,0.0391006832
1446,0.0293255119
1447,0.0293255119
1448,0.0293255119
1449,0.0293255119
1450,0.0293255119
1451,0.0391006832
1452,0.0488758516
1453,0.0684261989
1454,0.0684261989
1455,0.0488758516
1456,0.0391006832
1457,0.0391006832
1458,0.0293255119
1459,0.0391006832
1460,0.0488758516
1461,0.0391006832
1462,0.0488758516
1463,0.0488758516
1464,0.0488758516
1465,0.0391006832
1466,0.0293255119
1467,0.0293255119
1468,0.0195503416
1469,0.0195503416
1470,0.0195503416
1471,0.0097751703
1472,0.0195503416
1473,0.0097751703
1474,0.0195503416
1475,0.0293255119
1476,0.0293255119
1477,0.0391006832
1478,0.0391006832
1479,0.0391006832
1480,0.0391006832
1481,0.0391006832
1482,0.0488758516
1483,0.0488758516
1484,0.0488758516
1485,0.0488758516
1486,0.0488758516
1487,0.0488758516
1488,0.0586510229
1489,0.0684261989
1490,0.0684261989
1491,0.0586510229
1492,0.0684261989
1493,0.0782013654
1494,0.0782013654
1495,0.0977517032
1496,0.0977517032
1497,0.0879765415
1498,0.0684261989
1499,0.0879765415
1500,0.0879765415
1501,0.1075268864
1502,0.1075268864
1503,0.1173020482
1504,0.1075268864
1505,0.2248289346
1506,0.2052785873
1507,0.1759530782
1508,0.1564027309
1509,0.1466275596
1510,0.1368523955
1511,0.1466275596
1512,0.1270772218
1513,0.1173020482
1514,0.1075268864
1515,0.1270772218
1516,0.1368523955
1517,0.1173020482
1518,0.1173020482
1519,0.1173020482
1520,0.1075268864
1521,0.0977517032
1522,0.0879765415
1523,0.0782013654
1524,0.0684261989
1525,0.0586510229
1526,0.0488758516
1527,0.0391006832
1528,0.0293255119
1529,0.0391006832
1530,0.0391006832
1531,0.0391006832
1532,0.0293255119
1533,0.0293255119
1534,0.0293255119
1535,0.0293255119
1536,0.0195503416
1537,0.0195503416
1538,0.0195503416
1539,0.0195503416
1540,0.0195503416
1541,0.0097751703
1542,0.0097751703
1543,0.0097751703
1544,0.0097751703
1545,0.0195503416
1546,0.0097751703
1547,0.0097751703
1548,0.0097751703
1549,0.0097751703
1550,0.0195503416
1551,0.0195503416
1552,0.0195503416
1553,0.0195503416
1554,0.0293255119
1555,0.0293255119
1556,0.0293255119
1557,0.0293255119
1558,0.0195503416
1559,0.0195503416
1560,0.0293255119
1561,0.0293255119
1562,0.0293255119
1563,0.0293255119
1564,0.0293255119
1565,0.0293255119
1566,0.0293255119
1567,0.0293255119
1568,0.0293255119
1569,0.0195503416
1570,0.0293255119
1571,0.0293255119
1572,0.0195503416
1573,0.0293255119
1574,0.0293255119
1575,0.0195503416
1576,0.0293255119
1577,0.0293255119
1578,0.0391006832
1579,0.0391006832
1580,0.0293255119
1581,0.0293255119
1582,0.0293255119
1583,0.0293255119
1584,0.0293255119
1585,0.0293255119
1586,0.0293255119
1587,0.0195503416
1588,0.0293255119
1589,0.0293255119
1590,0.0293255119
1591,0.0977517032
1592,0.0879765415
1593,0.0879765415
1594,0.0782013654
1595,0.0684261989
1596,0.0586510229
1597,0.0488758516
1598,0.0488758516
1599,0.0488758516
1600,0.0488758516
1601,0.0391006832
1602,0.0293255119
1603,0.0293255119
1604,0.0293255119
1605,0.0195503416
1606,0.0293255119
1607,0.0488758516
1608,0.0488758516
1609,0.0586510229
1610,0.0684261989
1611,0.0782013654
1612,0.0879765415
1613,0.0684261989
1614,0.0488758516
1615,0.0391006832
1616,0.0293255119
1617,0.0195503416
1618,0.0293255119
1619,0.0293255119
1620,0.0195503416
1621,0.0195503416
1622,0.0195503416
1623,0.0586510229
1624,0.0488758516
1625,0.0391006832
1626,0.0293255119
1627,0.0293255119
1628,0.0293255119
1629,0.0195503416
1630,0.0097751703
1631,0.0097751703
1632,0.0000000000
1633,0.0097751703
1634,0.0195503416
1635,0.0195503416
1636,0.0293255119
1637,0.0293255119
1638,0.0391006832
1639,0.0293255119
1640,0.0391006832
1641,0.0488758516
1642,0.0391006832
1643,0.0391006832
1644,0.0391006832
1645,0.0488758516
1646,0.0391006832
1647,0.0391006832
1648,0.0391006832
1649,0.0391006832
1650,0.0391006832
1651,0.0391006832
1652,0.0488758516
1653,0.0488758516
1654,0.0586510229
1655,0.0586510229
1656,0.0684261989
1657,0.1075268864
1658,0.0977517032
1659,0.0977517032
1660,0.1270772218
1661,0.1173020482
1662,0.1173020482
1663,0.1075268864
1664,0.1270772218
1665,0.2346040964
1666,0.2052785873
1667,0.1857282543
1668,0.1857282543
1669,0.1661779165
1670,0.1564027309
1671,0.1466275596
1672,0.1466275596
1673,0.1368523955
1674,0.1564027309
1675,0.1466275596
1676,0.1368523955
1677,0.1270772218
1678,0.1173020482
1679,0.0977517032
1680,0.0977517032
1681,0.0879765415
1682,0.0684261989
1683,0.0586510229
1684,0.0488758516
1685,0.0391006832
1686,0.0391006832
1687,0.0293255119
1688,0.0293255119
1689,0.0293255119
1690,0.0391006832
1691,0.0391006832
1692,0.0391006832
1693,0.0391006832
1694,0.0391006832
1695,0.0391006832
1696,0.0391006832
1697,0.0293255119
1698,0.0195503416
1699,0.0195503416
1700,0.0195503416
1701,0.0195503416
1702,0.0195503416
1703,0.0195503416
1704,0.0195503416
1705,0.0195503416
1706,0.0195503416
1707,0.0195503416
1708,0.0195503416
1709,0.0097751703
1710,0.0097751703
1711,0.0195503416
1712,0.0195503416
1713,0.0293255119
1714,0.0293255119
1715,0.0293255119
1716,0.0391006832
1717,0.0293255119
1718,0.0293255119
1719,0.0293255119
1720,0.0293255119
1721,0.0293255119
1722,0.0195503416
1723,0.0195503416
1724,0.0195503416
1725,0.0195503416
1726,0.0097751703
1727,0.0195503416
1728,0.0097751703
1729,0.0097751703
1730,0.0195503416
1731,0.0097751703
1732,0.0097751703
1733,0.0097751703
1734,0.0097751703
1735,0.0195503416
1736,0.0097751703
1737,0.0195503416
1738,0.0195503416
1739,0.0195503416
1740,0.0195503416
1741,0.0195503416
1742,0.0097751703
1743,0.0195503416
1744,0.0195503416
1745,0.0195503416
1746,0.0097751703
1747,0.0097751703
1748,0.0097751703
1749,0.0097751703
1750,0.0097751703
1751,0.0097751703
1752,0.0097751703
1753,0.0097751703
1754,0.0195503416
1755,0.0195503416
1756,0.0195503416
1757,0.0097751703
1758,0.0097751703
1759,0.0195503416
1760,0.0097751703
1761,0.0097751703
1762,0.0586510229
1763,0.0586510229
1764,0.0488758516
1765,0.0488758516
1766,0.0391006832
1767,0.0391006832
1768,0.0391006832
1769,0.0293255119
1770,0.0195503416
1771,0.0195503416
1772,0.0097751703
1773,0.0195503416
1774,0.0293255119
1775,0.0195503416
1776,0.0195503416
1777,0.0293255119
1778,0.0293255119
1779,0.0293255119
1780,0.0293255119
1781,0.0293255119
1782,0.0293255119
1783,0.0195503416
1784,0.0488758516
1785,0.0488758516
1786,0.0391006832
1787,0.0488758516
1788,0.0586510229
1789,0.0684261989
1790,0.0586510229
1791,0.0586510229
1792,0.0586510229
1793,0.0586510229
1794,0.0488758516
1795,0.0391006832
1796,0.0293255119
1797,0.0293255119
1798,0.0293255119
1799,0.0293255119
1800,0.0293255119
1801,0.0195503416
1802,0.0586510229
1803,0.0586510229
1804,0.0391006832
1805,0.0293255119
1806,0.0293255119
1807,0.0195503416
1808,0.0195503416
1809,0.0097751703
1810,0.0097751703
1811,0.0097751703
1812,0.0195503416
1813,0.0195503416
1814,0.0195503416
1815,0.0195503416
1816,0.0195503416
1817,0.0195503416
1818,0.0195503416
1819,0.0195503416
1820,0.0195503416
1821,0.0293255119
1822,0.0293255119
1823,0.0293255119
1824,0.0293255119
1825,0.0195503416
1826,0.0195503416
1827,0.0293255119
1828,0.0391006832
1829,0.0391006832
1830,0.0488758516
1831,0.0391006832
1832,0.0488758516
1833,0.0488758516
1834,0.0586510229
1835,0.0488758516
1836,0.0586510229
1837,0.0684261989
1838,0.0684261989
1839,0.0684261989
1840,0.0684261989
1841,0.0782013654
1842,0.0879765415
1843,0.0977517032
1844,0.0879765415
1845,0.0977517032
1846,0.1075268864
1847,0.1075268864
1848,0.1759530782
1849,0.1759530782
1850,0.1564027309
1851,0.1368523955
1852,0.1368523955
1853,0.1368523955
1854,0.1270772218
1855,0.1270772218
1856,0.1075268864
1857,0.1075268864
1858,0.1075268864
1859,0.1368523955
1860,0.1368523955
1861,0.1368523955
1862,0.1564027309
1863,0.1466275596
1864,0.1466275596
1865,0.1466275596
1866,0.1368523955
1867,0.1173020482
1868,0.1075268864
1869,0.0977517032
1870,0.0977517032
1871,0.0782013654
1872,0.0684261989
1873,0.0586510229
1874,0.0488758516
1875,0.0391006832
1876,0.0391006832
1877,0.0293255119
1878,0.0293255119
1879,0.0293255119
1880,0.0391006832
1881,0.0586510229
1882,0.0391006832
1883,0.0391006832
1884,0.0293255119
1885,0.0293255119
1886,0.0391006832
1887,0.0293255119
1888,0.0195503416
1889,0.0195503416
1890,0.0195503416
1891,0.0195503416
1892,0.0097751703
1893,0.0097751703
1894,0.0195503416
1895,0.0195503416
1896,0.0097751703
1897,0.0097751703
1898,0.0097751703
1899,0.0097751703
1900,0.0097751703
1901,0.0097751703
1902,0.0097751703
1903,0.0097751703
1904,0.0097751703
1905,0.0195503416
1906,0.0195503416
1907,0.0195503416
1908,0.0195503416
1909,0.0293255119
1910,0.0391006832
1911,0.0293255119
1912,0.0293255119
1913,0.0293255119
1914,0.0195503416
1915,0.0293255119
1916,0.0293255119
1917,0.0195503416
1918,0.0195503416
1919,0.0195503416
1920,0.0195503416
1921,0.0195503416
1922,0.0195503416
1923,0.0293255119
1924,0.0195503416
1925,0.0293255119
1926,0.0195503416
1927,0.0195503416
1928,0.0293255119
1929,0.0195503416
1930,0.0195503416
1931,0.0195503416
1932,0.0195503416
1933,0.0195503416
1934,0.0195503416
1935,0.0097751703
1936,0.0097751703
1937,0.0195503416
1938,0.0097751703
1939,0.0097751703
1940,0.0195503416
1941,0.0195503416
1942,0.0195503416
1943,0.0195503416
1944,0.0195503416
1945,0.0097751703
1946,0.0195503416
1947,0.0097751703
1948,0.0097751703
1949,0.0195503416
1950,0.0097751703
1951,0.0195503416
1952,0.0195503416
1953,0.0195503416
1954,0.0293255119
1955,0.0293255119
1956,0.0391006832
1957,0.0879765415
1958,0.0684261989
1959,0.0684261989
1960,0.0586510229
1961,0.0488758516
1962,0.0391006832
1963,0.0488758516
1964,0.0391006832
1965,0.0391006832
1966,0.0391006832
1967,0.0391006832
1968,0.0293255119
1969,0.0391006832
1970,0.0293255119
1971,0.0293255119
1972,0.0391006832
1973,0.0488758516
1974,0.0684261989
1975,0.0586510229
1976,0.0488758516
1977,0.0488758516
1978,0.0391006832
1979,0.0391006832
1980,0.0293255119
1981,0.0293255119
1982,0.0391006832
1983,0.0488758516
1984,0.0391006832
1985,0.0586510229
1986,0.0488758516
1987,0.0488758516
1988,0.0391006832
1989,0.0293255119
1990,0.0293255119
1991,0.0293255119
1992,0.0195503416
1993,0.0195503416
1994,0.0097751703
1995,0.0097751703
1996,0.0097751703
1997,0.0097751703
1998,0.0097751703
1999,0.0097751703
2000,0.0097751703
2001,0.4007820129
2002,0.3225806236
2003,0.2639296054
2004,0.2248289346
2005,0.1857282543
2006,0.1759530782
2007,0.1466275596
2008,0.1368523955
2009,0.1173020482
2010,0.1270772218
2011,0.1173020482
2012,0.1075268864
2013,0.1075268864
2014,0.1075268864
2015,0.1075268864
2016,0.1075268864
2017,0.0977517032
2018,0.1173020482
2019,0.1173020482
2020,0.1075268864
2021,0.1270772218
2022,0.1173020482
2023,0.1173020482
2024,0.1270772218
2025,0.1173020482
2026,0.1173020482
2027,0.1368523955
2028,0.1368523955
2029,0.1368523955
2030,0.1368523955
2031,0.1368523955
2032,0.1368523955
2033,0.1368523955
2034,0.1368523955
2035,0.1270772218
2036,0.1368523955
2037,0.1270772218
2038,0.1173020482
2039,0.1075268864
2040,0.1075268864
2041,0.1075268864
2042,0.0977517032
2043,0.0879765415
2044,0.0977517032
2045,0.0879765415
2046,0.1173020482
2047,0.1075268864
2048,0.1075268864
2049,0.1075268864
2050,0.1075268864
2051,0.0977517032
2052,0.0879765415
2053,0.0977517032
2054,0.0879765415
2055,0.0879765415
2056,0.0782013654
2057,0.0782013654
2058,0.0879765415
2059,0.0782013654
2060,0.0879765415
2061,0.0782013654
2062,0.0879765415
2063,0.0879765415
2064,0.0782013654
2065,0.0684261989
2066,0.0684261989
2067,0.0684261989
2068,0.0586510229
2069,0.0586510229
2070,0.0586510229
2071,0.0684261989
2072,0.0586510229
2073,0.0586510229
2074,0.0488758516
2075,0.0586510229
2076,0.0488758516
2077,0.0488758516
2078,0.0488758516
2079,0.0586510229
2080,0.0488758516
2081,0.0488758516
2082,0.0586510229
2083,0.0488758516
2084,0.0488758516
2085,0.0586510229
2086,0.0586510229
2087,0.0488758516
2088,0.0488758516
2089,0.0488758516
2090,0.0488758516
2091,0.0488758516
2092,0.0391006832
2093,0.0293255119
2094,0.0488758516
2095,0.0488758516
2096,0.0488758516
2097,0.0586510229
2098,0.0684261989
2099,0.0879765415
2100,0.0879765415
2101,0.0879765415
2102,0.0879765415
2103,0.0879765415
2104,0.0782013654
2105,0.0782013654
2106,0.0684261989
2107,0.0684261989
2108,0.0684261989
2109,0.0684261989
2110,0.0684261989
2111,0.0684261989
2112,0.0782013654
2113,0.0977517032
2114,0.1075268864
2115,0.1075268864
2116,0.1075268864
2117,0.1075268864
2118,0.0977517032
2119,0.0879765415
2120,0.1075268864
2121,0.1075268864
2122,0.0977517032
2123,0.1075268864
2124,0.1075268864
2125,0.1173020482
2126,0.1075268864
2127,0.1075268864
2128,0.0977517032
2129,0.1173020482
2130,0.1075268864
2131,0.0977517032
2132,0.1075268864
2133,0.0977517032
2134,0.1075268864
2135,0.1075268864
2136,0.0977517032
2137,0.0879765415
2138,0.0879765415
2139,0.0977517032
2140,0.0977517032
2141,0.1075268864
2142,0.1075268864
2143,0.1173020482
2144,0.1173020482
2145,0.1075268864
2146,0.1075268864
2147,0.1075268864
2148,0.0977517032
2149,0.0977517032
2150,0.1173020482
2151,0.1075268864
2152,0.1075268864
2153,0.0977517032
2154,0.0977517032
2155,0.0977517032
2156,0.0879765415
2157,0.0879765415
2158,0.0879765415
2159,0.0879765415
2160,0.0879765415
2161,0.0782013654
2162,0.0684261989
2163,0.0684261989
2164,0.0586510229
2165,0.0488758516
2166,0.0488758516
2167,0.0488758516
2168,0.0488758516
2169,0.0391006832
2170,0.0391006832
2171,0.0293255119
2172,0.0391006832
2173,0.0391006832
2174,0.0293255119
2175,0.0293255119
2176,0.0391006832
2177,0.0391006832
2178,0.0391006832
2179,0.0391006832
2180,0.0488758516
2181,0.0586510229
2182,0.0391006832
2183,0.0586510229
2184,0.0684261989
2185,0.0782013654
2186,0.0684261989
2187,0.0782013654
2188,0.0782013654
2189,0.0684261989
2190,0.0684261989
2191,0.0684261989
2192,0.0586510229
2193,0.0586510229
2194,0.0586510229
2195,0.0684261989
2196,0.0782013654
2197,0.0684261989
2198,0.0684261989
2199,0.0684261989
2200,0.0782013654
2201,0.0879765415
2202,0.0977517032
2203,0.1075268864
2204,0.0977517032
2205,0.1075268864
2206,0.1075268864
2207,0.1173020482
2208,0.1173020482
2209,0.1075268864
2210,0.0977517032
2211,0.0977517032
2212,0.1173020482
2213,0.1270772218
2214,0.1173020482
2215,0.1075268864
2216,0.1075268864
2217,0.1173020482
2218,0.0977517032
2219,0.0977517032
2220,0.0977517032
2221,0.1075268864
2222,0.1173020482
2223,0.1075268864
2224,0.1075268864
2225,0.1173020482
2226,0.1075268864
2227,0.1173020482
2228,0.1173020482
2229,0.1075268864
2230,0.0977517032
2231,0.0879765415
2232,0.0879765415
2233,0.0879765415
2234,0.0879765415
2235,0.0977517032
2236,0.0977517032
2237,0.0977517032
2238,0.0977517032
2239,0.1075268864
2240,0.1075268864
2241,0.1075268864
2242,0.0977517032
2243,0.0879765415
2244,0.0977517032
2245,0.0879765415
2246,0.0879765415
2247,0.0879765415
2248,0.0782013654
2249,0.0782013654
2250,0.0684261989
2251,0.0684261989
2252,0.0684261989
2253,0.0586510229
2254,0.0782013654
2255,0.0586510229
2256,0.0684261989
2257,0.0488758516
2258,0.0586510229
2259,0.0586510229
2260,0.0488758516
2261,0.0684261989
2262,0.0586510229
2263,0.0488758516
2264,0.0586510229
2265,0.0488758516
2266,0.0488758516
2267,0.0488758516
2268,0.0488758516
2269,0.0586510229
2270,0.0586510229
2271,0.0684261989
2272,0.0488758516
2273,0.0586510229
2274,0.0488758516
2275,0.0391006832
2276,0.0488758516
2277,0.0488758516
2278,0.0488758516
2279,0.0391006832
2280,0.0391006832
2281,0.0488758516
2282,0.0586510229
2283,0.0586510229
2284,0.0586510229
2285,0.0586510229
2286,0.0488758516
2287,0.0488758516
2288,0.0586510229
2289,0.0488758516
2290,0.0586510229
2291,0.0488758516
2292,0.0488758516
2293,0.0488758516
2294,0.0391006832
2295,0.0391006832
2296,0.0391006832
2297,0.0293255119
2298,0.0391006832
2299,0.0391006832
2300,0.0391006832
2301,0.0391006832
2302,0.0391006832
2303,0.0293255119
2304,0.0391006832
2305,0.0391006832
2306,0.0391006832
2307,0.0293255119
2308,0.0391006832
2309,0.0391006832
2310,0.0391006832
2311,0.0391006832
2312,0.0391006832
2313,0.0391006832
2314,0.0391006832
2315,0.0391006832
2316,0.0391006832
2317,0.0391006832
2318,0.0391006832
2319,0.0391006832
2320,0.0293255119
2321,0.0293255119
2322,0.0293255119
2323,0.0391006832
2324,0.0391006832
2325,0.0391006832
2326,0.0391006832
2327,0.0391006832
2328,0.0391006832
2329,0.0391006832
2330,0.0391006832
2331,0.0391006832
2332,0.0391006832
2333,0.0391006832
2334,0.0391006832
2335,0.0391006832
2336,0.0391006832
2337,0.0391006832
2338,0.0488758516
2339,0.0488758516
2340,0.0488758516
2341,0.0488758516
2342,0.0488758516
2343,0.0391006832
2344,0.0293255119
2345,0.0293255119
2346,0.0293255119
2347,0.0293255119
2348,0.0391006832
2349,0.0391006832
2350,0.0391006832
2351,0.0391006832
2352,0.0391006832
2353,0.0391006832
2354,0.0391006832
2355,0.0488758516
2356,0.0391006832
2357,0.0391006832
2358,0.0391006832
2359,0.0488758516
2360,0.0488758516
2361,0.0488758516
2362,0.0391006832
2363,0.0488758516
2364,0.0586510229
2365,0.0488758516
2366,0.0586510229
2367,0.0684261989
2368,0.0684261989
2369,0.0586510229
2370,0.0586510229
2371,0.0586510229
2372,0.0488758516
2373,0.0488758516
2374,0.0488758516
2375,0.0586510229
2376,0.0586510229
2377,0.0586510229
2378,0.0684261989
2379,0.0684261989
2380,0.0684261989
2381,0.0684261989
2382,0.0782013654
2383,0.0977517032
2384,0.0977517032
2385,0.0977517032
2386,0.0879765415
2387,0.0879765415
2388,0.0879765415
2389,0.0782013654
2390,0.0782013654
2391,0.0977517032
2392,0.0879765415
2393,0.0879765415
2394,0.0879765415
2395,0.0879765415
2396,0.0782013654
2397,0.0684261989
2398,0.0684261989
2399,0.0879765415
2400,0.0879765415
2401,0.0879765415
2402,0.0879765415
2403,0.0879765415
2404,0.0977517032
2405,0.0977517032
2406,0.0879765415
2407,0.0879765415
2408,0.0879765415
2409,0.0879765415
2410,0.0879765415
2411,0.0977517032
2412,0.0977517032
2413,0.0977517032
2414,0.1075268864
2415,0.1075268864
2416,0.0977517032
2417,0.1075268864
2418,0.0977517032
2419,0.0977517032
2420,0.1075268864
2421,0.1075268864
2422,0.1075268864
2423,0.1075268864
2424,0.1075268864
2425,0.0977517032
2426,0.1173020482
2427,0.0977517032
2428,0.0977517032
2429,0.0977517032
2430,0.0977517032
2431,0.0977517032
