0,0.1075268864
1,0.6647116661
2,0.9188660621
3,1.0361680984
4,1.0752688646
5,1.0068426132
6,0.8308895111
7,0.6940371513
8,0.5962854385
9,0.5278592109
10,0.4594330310
11,0.4007820129
12,0.3225806236
13,0.2834799575
14,0.2248289346
15,0.1857282543
16,0.1661779165
17,0.1466275596
18,0.1270772218
19,0.1075268864
20,0.0879765415
21,0.0879765415
22,0.0879765415
23,0.0782013654
24,0.0586510229
25,0.0586510229
26,0.0488758516
27,0.0488758516
28,0.0586510229
29,0.0586510229
30,0.0782013654
31,0.0684261989
32,0.0782013654
33,0.0879765415
34,0.0977517032
35,0.1661779165
36,0.1955034160
37,0.1955034160
38,0.2052785873
39,0.1857282543
40,0.1661779165
41,0.1466275596
42,0.1661779165
43,0.1857282543
44,0.1955034160
45,0.1955034160
46,0.1955034160
47,0.1857282543
48,0.1955034160
49,0.1759530782
50,0.1564027309
51,0.1759530782
52,0.2248289346
53,0.2346040964
54,0.3421309947
55,0.4301075458
56,0.4594330310
57,0.4007820129
58,0.3910068321
59,0.3910068321
60,0.3323558330
61,0.3030303001
62,0.3030303001
63,0.2932551193
64,0.2639296054
65,0.2150537729
66,0.1857282543
67,0.1661779165
68,0.1661779165
69,0.1759530782
70,0.1857282543
71,0.1955034160
72,0.2346040964
73,0.3128054618
74,0.4887585639
75,0.8699902534
76,1.4173997879
77,1.9061583518
78,2.0234603881
79,1.9452590942
80,1.8768328666
81,1.6617790222
82,1.7595307826
83,1.6226783752
84,1.4565005302
85,1.2805473804
86,1.0557184219
87,0.8895405769
88,0.7820136547
89,0.6451612472
90,0.5669599056
91,0.4887585639
92,0.4105571746
93,0.3519061565
94,0.3421309947
95,0.3519061565
96,0.3714565038
97,0.4007820129
98,0.3812316703
99,0.3421309947
100,0.3225806236
101,0.2737047910
102,0.2541544437
103,0.2150537729
104,0.2150537729
105,0.2541544437
106,0.2932551193
107,0.3030303001
108,0.3128054618
109,0.3910068321
110,0.4105571746
111,0.4007820129
112,0.3421309947
113,0.2932551193
114,0.2443792819
115,0.2052785873
116,0.2541544437
117,0.2639296054
118,0.2346040964
119,0.2346040964
120,0.2346040964
121,0.2052785873
122,0.1955034160
123,0.1857282543
124,0.2150537729
125,0.2346040964
126,0.2737047910
127,0.3030303001
128,0.3225806236
129,0.2834799575
130,0.2443792819
131,0.2248289346
132,0.2052785873
133,0.1759530782
134,0.1759530782
135,0.1466275596
136,0.1270772218
137,0.1173020482
138,0.1075268864
139,0.0977517032
140,0.1075268864
141,0.1075268864
142,0.0879765415
143,0.0977517032
144,0.2346040964
145,0.3323558330
146,0.3519061565
147,0.3030303001
148,0.2834799575
149,0.3519061565
150,0.3030303001
151,0.2834799575
152,0.2639296054
153,0.2443792819
154,0.2248289346
155,0.2737047910
156,0.2248289346
157,0.2150537729
158,0.3519061565
159,0.3519061565
160,0.3030303001
161,0.2737047910
162,0.2443792819
163,0.2150537729
164,0.1857282543
165,0.2150537729
166,0.2443792819
167,0.2737047910
168,0.2932551193
169,0.3128054618
170,0.3910068321
171,0.4301075458
172,0.3812316703
173,0.3225806236
174,0.3128054618
175,0.3519061565
176,0.4203323364
177,0.4398827075
178,0.4594330310
179,0.4594330310
180,0.3910068321
181,0.3421309947
182,0.2834799575
183,0.2541544437
184,0.2346040964
185,0.2052785873
186,0.1759530782
187,0.1466275596
188,0.1564027309
189,0.1466275596
190,0.1368523955
191,0.1270772218
192,0.1075268864
193,0.0977517032
194,0.1173020482
195,0.1173020482
196,0.1368523955
197,0.1466275596
198,0.1368523955
199,0.1368523955
200,0.1270772218
201,0.1075268864
202,0.0977517032
203,0.0977517032
204,0.1075268864
205,0.1270772218
206,0.1466275596
207,0.1368523955
208,0.1368523955
209,0.1368523955
210,0.1368523955
211,0.1466275596
212,0.1368523955
213,0.1466275596
214,0.1466275596
215,0.1857282543
216,0.2052785873
217,0.1857282543
218,0.1759530782
219,0.1564027309
220,0.1270772218
221,0.1173020482
222,0.1270772218
223,0.1466275596
224,0.1564027309
225,0.1661779165
226,0.1661779165
227,0.1661779165
228,0.1564027309
229,0.1564027309
230,0.1368523955
231,0.1173020482
232,0.1075268864
233,0.0977517032
234,0.0977517032
235,0.0782013654
236,0.0782013654
237,0.0684261989
238,0.0879765415
239,0.1075268864
240,0.1173020482
241,0.1368523955
242,0.1270772218
243,0.1270772218
244,0.1270772218
245,0.1075268864
246,0.0879765415
247,0.0977517032
248,0.0977517032
249,0.1075268864
250,0.1368523955
251,0.1759530782
252,0.1955034160
253,0.1955034160
254,0.1759530782
255,0.1466275596
256,0.1368523955
257,0.1075268864
258,0.0977517032
259,0.0879765415
260,0.0879765415
261,0.0879765415
262,0.1075268864
263,0.1075268864
264,0.0977517032
265,0.1075268864
266,0.0977517032
267,0.1075268864
268,0.0977517032
269,0.0977517032
270,0.1075268864
271,0.0977517032
272,0.0879765415
273,0.0782013654
274,0.0684261989
275,0.0782013654
276,0.1270772218
277,0.2443792819
278,0.3225806236
279,0.3519061565
280,0.2932551193
281,0.2639296054
282,0.2150537729
283,0.2443792819
284,0.2346040964
285,0.2150537729
286,0.1955034160
287,0.1759530782
288,0.1564027309
289,0.1661779165
290,0.1564027309
291,0.1564027309
292,0.1466275596
293,0.1368523955
294,0.1466275596
295,0.1368523955
296,0.1173020482
297,0.1173020482
298,0.1173020482
299,0.1368523955
300,0.1368523955
301,0.1466275596
302,0.1759530782
303,0.2541544437
304,0.2834799575
305,0.3030303001
306,0.2834799575
307,0.2639296054
308,0.2346040964
309,0.2052785873
310,0.2052785873
311,0.2052785873
312,0.2248289346
313,0.2150537729
314,0.2150537729
315,0.2052785873
316,0.2052785873
317,0.2150537729
318,0.1955034160
319,0.1955034160
320,0.2248289346
321,0.2248289346
322,0.2052785873
323,0.1759530782
324,0.2443792819
325,0.3030303001
326,0.3225806236
327,0.2834799575
328,0.3519061565
329,0.3128054618
330,0.2834799575
331,0.2737047910
332,0.3030303001
333,0.2932551193
334,0.2443792819
335,0.2248289346
336,0.2052785873
337,0.2052785873
338,0.2150537729
339,0.2248289346
340,0.2443792819
341,0.2346040964
342,0.2248289346
343,0.3030303001
344,0.3030303001
345,0.3323558330
346,0.4105571746
347,0.4007820129
348,0.3421309947
349,0.3323558330
350,0.3225806236
351,0.2932551193
352,0.2834799575
353,0.2639296054
354,0.2443792819
355,0.2443792819
356,0.2346040964
357,0.2248289346
358,0.2150537729
359,0.2346040964
360,0.2248289346
361,0.1955034160
362,0.1661779165
363,0.1466275596
364,0.1270772218
365,0.1368523955
366,0.1368523955
367,0.1270772218
368,0.1466275596
369,0.1466275596
370,0.1368523955
371,0.1661779165
372,0.1759530782
373,0.2541544437
374,0.3421309947
375,0.3616813421
376,0.3030303001
377,0.2541544437
378,0.2248289346
379,0.1955034160
380,0.1759530782
381,0.1661779165
382,0.1466275596
383,0.1270772218
384,0.1270772218
385,0.1270772218
386,0.1075268864
387,0.0879765415
388,0.0782013654
389,0.0684261989
390,0.0782013654
391,0.0879765415
392,0.0977517032
393,0.1075268864
394,0.0977517032
395,0.0782013654
396,0.0684261989
397,0.0586510229
398,0.0586510229
399,0.0586510229
400,0.0684261989
401,0.0782013654
402,0.0782013654
403,0.0684261989
404,0.0586510229
405,0.0684261989
406,0.0684261989
407,0.0684261989
408,0.0684261989
409,0.0782013654
410,0.0684261989
411,0.0684261989
412,0.0586510229
413,0.0586510229
414,0.0586510229
415,0.0586510229
416,0.0586510229
417,0.0488758516
418,0.0488758516
419,0.0488758516
420,0.0586510229
421,0.0488758516
422,0.0586510229
423,0.0684261989
424,0.1173020482
425,0.1466275596
426,0.1564027309
427,0.1368523955
428,0.1270772218
429,0.1270772218
430,0.1466275596
431,0.1270772218
432,0.1075268864
433,0.0879765415
434,0.0879765415
435,0.0684261989
436,0.0684261989
437,0.0977517032
438,0.1075268864
439,0.1173020482
440,0.1270772218
441,0.1270772218
442,0.0977517032
443,0.0879765415
444,0.0782013654
445,0.0684261989
446,0.0684261989
447,0.0488758516
448,0.0488758516
449,0.0586510229
450,0.0879765415
451,0.1270772218
452,0.1955034160
453,0.3128054618
454,0.3519061565
455,0.3616813421
456,0.3323558330
457,0.2932551193
458,0.2541544437
459,0.2052785873
460,0.1759530782
461,0.1466275596
462,0.1368523955
463,0.1173020482
464,0.1173020482
465,0.1368523955
466,0.1368523955
467,0.1466275596
468,0.1564027309
469,0.1368523955
470,0.1564027309
471,0.1759530782
472,0.2541544437
473,0.2443792819
474,0.2052785873
475,0.1661779165
476,0.1466275596
477,0.1466275596
478,0.1564027309
479,0.1661779165
480,0.1759530782
481,0.1661779165
482,0.1661779165
483,0.1955034160
484,0.1661779165
485,0.1661779165
486,0.1759530782
487,0.1564027309
488,0.1564027309
489,0.1564027309
490,0.1564027309
491,0.1857282543
492,0.1955034160
493,0.2150537729
494,0.2052785873
495,0.1955034160
496,0.2737047910
497,0.3128054618
498,0.3128054618
499,0.3030303001
500,0.2834799575
501,0.2639296054
502,0.2541544437
503,0.2346040964
504,0.2346040964
505,0.2150537729
506,0.2346040964
507,0.2443792819
508,0.2639296054
509,0.3225806236
510,0.2932551193
511,0.2639296054
512,0.2541544437
513,0.2737047910
514,0.2541544437
515,0.3323558330
516,0.3714565038
517,0.3616813421
518,0.3421309947
519,0.3910068321
520,0.4105571746
521,0.4594330310
522,0.4887585639
523,0.4594330310
524,0.4301075458
525,0.4692081928
526,0.4594330310
527,0.4594330310
528,0.4985337257
529,0.4398827075
530,0.3910068321
531,0.4301075458
532,0.5180840492
533,0.4496578693
534,0.3714565038
535,0.3323558330
536,0.2932551193
537,0.3225806236
538,0.3421309947
539,0.2834799575
540,0.2443792819
541,0.2052785873
542,0.1759530782
543,0.1661779165
544,0.1466275596
545,0.1270772218
546,0.1466275596
547,0.1759530782
548,0.2150537729
549,0.2541544437
550,0.2541544437
551,0.2541544437
552,0.2737047910
553,0.2834799575
554,0.2541544437
555,0.2150537729
556,0.1759530782
557,0.1564027309
558,0.1466275596
559,0.1368523955
560,0.1075268864
561,0.0977517032
562,0.0977517032
563,0.1368523955
564,0.1661779165
565,0.1857282543
566,0.1759530782
567,0.1759530782
568,0.1466275596
569,0.1270772218
570,0.1270772218
571,0.1270772218
572,0.1075268864
573,0.0977517032
574,0.0977517032
575,0.0879765415
576,0.0977517032
577,0.1173020482
578,0.1368523955
579,0.1661779165
580,0.1564027309
581,0.1270772218
582,0.1075268864
583,0.1075268864
584,0.1173020482
585,0.1270772218
586,0.1564027309
587,0.1661779165
588,0.1661779165
589,0.1661779165
590,0.1759530782
591,0.1759530782
592,0.1759530782
593,0.1564027309
594,0.1564027309
595,0.1466275596
596,0.1270772218
597,0.1368523955
598,0.1661779165
599,0.1661779165
600,0.1759530782
601,0.1759530782
602,0.1564027309
603,0.1466275596
604,0.1368523955
605,0.1173020482
606,0.0977517032
607,0.0879765415
608,0.0879765415
609,0.0782013654
610,0.0977517032
611,0.0977517032
612,0.0879765415
613,0.0879765415
614,0.0684261989
615,0.0684261989
616,0.0684261989
617,0.0684261989
618,0.0586510229
619,0.0586510229
620,0.0391006832
621,0.0488758516
622,0.0586510229
623,0.0684261989
624,0.0782013654
625,0.0684261989
626,0.0879765415
627,0.0782013654
628,0.0782013654
629,0.0684261989
630,0.0684261989
631,0.0586510229
632,0.0586510229
633,0.0488758516
634,0.0488758516
635,0.0488758516
636,0.0391006832
637,0.0391006832
638,0.0586510229
639,0.0586510229
640,0.0586510229
641,0.0586510229
642,0.0684261989
643,0.0782013654
644,0.0879765415
645,0.0977517032
646,0.0879765415
647,0.0879765415
648,0.0782013654
649,0.0684261989
650,0.0586510229
651,0.0586510229
652,0.1466275596
653,0.1466275596
654,0.1759530782
655,0.2346040964
656,0.2639296054
657,0.2541544437
658,0.2443792819
659,0.2248289346
660,0.2052785873
661,0.1759530782
662,0.1564027309
663,0.1270772218
664,0.1075268864
665,0.0879765415
666,0.0977517032
667,0.1173020482
668,0.1368523955
669,0.1270772218
670,0.1270772218
671,0.1173020482
672,0.1466275596
673,0.2150537729
674,0.2346040964
675,0.2346040964
676,0.2639296054
677,0.3225806236
678,0.2834799575
679,0.2443792819
680,0.2346040964
681,0.2541544437
682,0.2541544437
683,0.2443792819
684,0.2443792819
685,0.2541544437
686,0.2248289346
687,0.2150537729
688,0.2150537729
689,0.1955034160
690,0.2150537729
691,0.2248289346
692,0.2150537729
693,0.2150537729
694,0.2346040964
695,0.2737047910
696,0.2932551193
697,0.3519061565
698,0.3616813421
699,0.4007820129
700,0.3812316703
701,0.3421309947
702,0.3128054618
703,0.2932551193
704,0.2834799575
705,0.2932551193
706,0.3323558330
707,0.3225806236
708,0.3616813421
709,0.3421309947
710,0.3030303001
711,0.2932551193
712,0.3225806236
713,0.3225806236
714,0.3323558330
715,0.3225806236
716,0.3030303001
717,0.2932551193
718,0.3030303001
719,0.3030303001
720,0.3910068321
721,0.4594330310
722,0.4398827075
723,0.4692081928
724,0.4594330310
725,0.4398827075
726,0.4007820129
727,0.3616813421
728,0.3714565038
729,0.3421309947
730,0.3030303001
731,0.3128054618
732,0.3128054618
733,0.2932551193
734,0.2932551193
735,0.2443792819
736,0.2052785873
737,0.1955034160
738,0.2052785873
739,0.1857282543
740,0.1759530782
741,0.1661779165
742,0.1466275596
743,0.1270772218
744,0.1270772218
745,0.1270772218
746,0.1075268864
747,0.0879765415
748,0.0879765415
749,0.0977517032
750,0.1270772218
751,0.1466275596
752,0.1759530782
753,0.2443792819
754,0.2639296054
755,0.2248289346
756,0.2150537729
757,0.2150537729
758,0.2248289346
759,0.2346040964
760,0.2346040964
761,0.2248289346
762,0.1955034160
763,0.1661779165
764,0.1661779165
765,0.1368523955
766,0.1270772218
767,0.0977517032
768,0.0879765415
769,0.0879765415
770,0.0977517032
771,0.1075268864
772,0.1368523955
773,0.1075268864
774,0.0977517032
775,0.0782013654
776,0.0879765415
777,0.0879765415
778,0.0879765415
779,0.0879765415
780,0.0782013654
781,0.0879765415
782,0.0977517032
783,0.1075268864
784,0.1075268864
785,0.0977517032
786,0.0879765415
787,0.0977517032
788,0.1075268864
789,0.1075268864
790,0.0977517032
791,0.0879765415
792,0.0782013654
793,0.0684261989
794,0.0586510229
795,0.0586510229
796,0.0488758516
797,0.0488758516
798,0.0391006832
799,0.0293255119
800,0.0293255119
801,0.0293255119
802,0.0391006832
803,0.0488758516
804,0.0488758516
805,0.0488758516
806,0.0488758516
807,0.0488758516
808,0.0391006832
809,0.0488758516
810,0.0488758516
811,0.0488758516
812,0.0586510229
813,0.0488758516
814,0.0391006832
815,0.0391006832
816,0.0488758516
817,0.0586510229
818,0.0879765415
819,0.0977517032
820,0.0977517032
821,0.0977517032
822,0.0782013654
823,0.0879765415
824,0.0977517032
825,0.0879765415
826,0.0879765415
827,0.0684261989
828,0.0684261989
829,0.0782013654
830,0.0782013654
831,0.0879765415
832,0.1075268864
833,0.1368523955
834,0.1661779165
835,0.2150537729
836,0.2737047910
837,0.3421309947
838,0.3910068321
839,0.4203323364
840,0.4203323364
841,0.4105571746
842,0.3714565038
843,0.3225806236
844,0.2834799575
845,0.2443792819
846,0.1955034160
847,0.1857282543
848,0.2150537729
849,0.2443792819
850,0.2834799575
851,0.2932551193
852,0.2932551193
853,0.3128054618
854,0.3714565038
855,0.4301075458
856,0.4398827075
857,0.3812316703
858,0.3616813421
859,0.3323558330
860,0.3421309947
861,0.3519061565
862,0.4105571746
863,0.3812316703
864,0.3616813421
865,0.3421309947
866,0.3128054618
867,0.2834799575
868,0.2737047910
869,0.2443792819
870,0.2639296054
871,0.2639296054
872,0.2932551193
873,0.3714565038
874,0.3714565038
875,0.3323558330
876,0.3323558330
877,0.2932551193
878,0.3030303001
879,0.3128054618
880,0.3323558330
881,0.3225806236
882,0.2932551193
883,0.3225806236
884,0.3225806236
885,0.3030303001
886,0.3030303001
887,0.3030303001
888,0.3323558330
889,0.3128054618
890,0.3421309947
891,0.3714565038
892,0.3225806236
893,0.3225806236
894,0.3128054618
895,0.2737047910
896,0.2443792819
897,0.2541544437
898,0.2346040964
899,0.2052785873
900,0.1857282543
901,0.2150537729
902,0.1955034160
903,0.1857282543
904,0.1857282543
905,0.2052785873
906,0.2443792819
907,0.3519061565
908,0.3519061565
909,0.3128054618
910,0.2932551193
911,0.3714565038
912,0.3616813421
913,0.4985337257
914,0.4398827075
915,0.4594330310
916,0.4692081928
917,0.4496578693
918,0.4301075458
919,0.3910068321
920,0.3323558330
921,0.2932551193
922,0.2834799575
923,0.2248289346
924,0.2052785873
925,0.2052785873
926,0.1857282543
927,0.1857282543
928,0.2052785873
929,0.2150537729
930,0.2150537729
931,0.1955034160
932,0.1759530782
933,0.1661779165
934,0.1368523955
935,0.1173020482
936,0.1173020482
937,0.0977517032
938,0.0977517032
939,0.0879765415
940,0.0879765415
941,0.0782013654
942,0.1173020482
943,0.1075268864
944,0.1075268864
945,0.1075268864
946,0.1173020482
947,0.1075268864
948,0.0977517032
949,0.0879765415
950,0.0879765415
951,0.0782013654
952,0.0684261989
953,0.0586510229
954,0.0586510229
955,0.0488758516
956,0.0488758516
957,0.0684261989
958,0.0586510229
959,0.0488758516
960,0.0488758516
961,0.0488758516
962,0.0684261989
963,0.0879765415
964,0.0782013654
965,0.0684261989
966,0.0586510229
967,0.0586510229
968,0.0488758516
969,0.0488758516
970,0.0488758516
971,0.0391006832
972,0.0488758516
973,0.0488758516
974,0.0488758516
975,0.0488758516
976,0.0586510229
977,0.0488758516
978,0.0391006832
979,0.0488758516
980,0.0586510229
981,0.0488758516
982,0.0488758516
983,0.0586510229
984,0.0977517032
985,0.1075268864
986,0.1173020482
987,0.1075268864
988,0.0977517032
989,0.0782013654
990,0.0782013654
991,0.0586510229
992,0.0586510229
993,0.0586510229
994,0.0488758516
995,0.0488758516
996,0.0391006832
997,0.0391006832
998,0.0391006832
999,0.0391006832
1000,0.0586510229
1001,1.0654937028
1002,0.8406646728
1003,0.6647116661
1004,0.5376344203
1005,0.4203323364
1006,0.3323558330
1007,0.2737047910
1008,0.2248289346
1009,0.1955034160
1010,0.1466275596
1011,0.1173020482
1012,0.0977517032
1013,0.0782013654
1014,0.0684261989
1015,0.0586510229
1016,0.0488758516
1017,0.0391006832
1018,0.0293255119
1019,0.0391006832
1020,0.0391006832
1021,0.0391006832
1022,0.0488758516
1023,0.0586510229
1024,0.0684261989
1025,0.0879765415
1026,0.0977517032
1027,0.0879765415
1028,0.0977517032
1029,0.1368523955
1030,0.1564027309
1031,0.1564027309
1032,0.1564027309
1033,0.1368523955
1034,0.1270772218
1035,0.0977517032
1036,0.0782013654
1037,0.0684261989
1038,0.0684261989
1039,0.0586510229
1040,0.0586510229
1041,0.0488758516
1042,0.0488758516
1043,0.0391006832
1044,0.0391006832
1045,0.0391006832
1046,0.0293255119
1047,0.0293255119
1048,0.0391006832
1049,0.0488758516
1050,0.0586510229
1051,0.0586510229
1052,0.0488758516
1053,0.0391006832
1054,0.0391006832
1055,0.0586510229
1056,0.0586510229
1057,0.0488758516
1058,0.0586510229
1059,0.0782013654
1060,0.0684261989
1061,0.0586510229
1062,0.0684261989
1063,0.0684261989
1064,0.0684261989
1065,0.0782013654
1066,0.0684261989
1067,0.0782013654
1068,0.0782013654
1069,0.1075268864
1070,0.0977517032
1071,0.1173020482
1072,0.1270772218
1073,0.1466275596
1074,0.1857282543
1075,0.2052785873
1076,0.2248289346
1077,0.2346040964
1078,0.2737047910
1079,0.2541544437
1080,0.2346040964
1081,0.2639296054
1082,0.2932551193
1083,0.2932551193
1084,0.2541544437
1085,0.2346040964
1086,0.2737047910
1087,0.2932551193
1088,0.4203323364
1089,0.3616813421
1090,0.3323558330
1091,0.3714565038
1092,0.3714565038
1093,0.3519061565
1094,0.3225806236
1095,0.2834799575
1096,0.2834799575
1097,0.2737047910
1098,0.2541544437
1099,0.2248289346
1100,0.2346040964
1101,0.3225806236
1102,0.3519061565
1103,0.3225806236
1104,0.2834799575
1105,0.2346040964
1106,0.2346040964
1107,0.3128054618
1108,0.3030303001
1109,0.2737047910
1110,0.2932551193
1111,0.3128054618
1112,0.3616813421
1113,0.3812316703
1114,0.4007820129
1115,0.3519061565
1116,0.5278592109
1117,0.6353860855
1118,0.5376344203
1119,0.4203323364
1120,0.3812316703
1121,0.3616813421
1122,0.3128054618
1123,0.2639296054
1124,0.2248289346
1125,0.2052785873
1126,0.1955034160
1127,0.2052785873
1128,0.2346040964
1129,0.2248289346
1130,0.1857282543
1131,0.1759530782
1132,0.1564027309
1133,0.1270772218
1134,0.1075268864
1135,0.1075268864
1136,0.1173020482
1137,0.1173020482
1138,0.1075268864
1139,0.0879765415
1140,0.1173020482
1141,0.1173020482
1142,0.0977517032
1143,0.0977517032
1144,0.0782013654
1145,0.0586510229
1146,0.0684261989
1147,0.0684261989
1148,0.0488758516
1149,0.0684261989
1150,0.0586510229
1151,0.0586510229
1152,0.0488758516
1153,0.0684261989
1154,0.0586510229
1155,0.0488758516
1156,0.0488758516
1157,0.0488758516
1158,0.0488758516
1159,0.0488758516
1160,0.0586510229
1161,0.0782013654
1162,0.0684261989
1163,0.0586510229
1164,0.0586510229
1165,0.0684261989
1166,0.0879765415
1167,0.0879765415
1168,0.0782013654
1169,0.0586510229
1170,0.0586510229
1171,0.0488758516
1172,0.0391006832
1173,0.0391006832
1174,0.0391006832
1175,0.0391006832
1176,0.0488758516
1177,0.0488758516
1178,0.0391006832
1179,0.0488758516
1180,0.0684261989
1181,0.0684261989
1182,0.0586510229
1183,0.0488758516
1184,0.0391006832
1185,0.0391006832
1186,0.0391006832
1187,0.0488758516
1188,0.0684261989
1189,0.0586510229
1190,0.0488758516
1191,0.0488758516
1192,0.0586510229
1193,0.0586510229
1194,0.0586510229
1195,0.0684261989
1196,0.0684261989
1197,0.0684261989
1198,0.0879765415
1199,0.0977517032
1200,0.1368523955
1201,0.1759530782
1202,0.1759530782
1203,0.1564027309
1204,0.1368523955
1205,0.1173020482
1206,0.1368523955
1207,0.1661779165
1208,0.1759530782
1209,0.1466275596
1210,0.1466275596
1211,0.1564027309
1212,0.1661779165
1213,0.1564027309
1214,0.1564027309
1215,0.1955034160
1216,0.2346040964
1217,0.2248289346
1218,0.1857282543
1219,0.1564027309
1220,0.1564027309
1221,0.1661779165
1222,0.1564027309
1223,0.1173020482
1224,0.1270772218
1225,0.1564027309
1226,0.1564027309
1227,0.1368523955
1228,0.1173020482
1229,0.0879765415
1230,0.0879765415
1231,0.0879765415
1232,0.0879765415
1233,0.0782013654
1234,0.0782013654
1235,0.0684261989
1236,0.0782013654
1237,0.0782013654
1238,0.0586510229
1239,0.0488758516
1240,0.0391006832
1241,0.0488758516
1242,0.0782013654
1243,0.0782013654
1244,0.0782013654
1245,0.0684261989
1246,0.0586510229
1247,0.0586510229
1248,0.0684261989
1249,0.0684261989
1250,0.0684261989
1251,0.0684261989
1252,0.0684261989
1253,0.0879765415
1254,0.0879765415
1255,0.0879765415
1256,0.0782013654
1257,0.0782013654
1258,0.0782013654
1259,0.0782013654
1260,0.0977517032
1261,0.0977517032
1262,0.0977517032
1263,0.0977517032
1264,0.1173020482
1265,0.1173020482
1266,0.1270772218
1267,0.1466275596
1268,0.1466275596
1269,0.1564027309
1270,0.1857282543
1271,0.1857282543
1272,0.1857282543
1273,0.1955034160
1274,0.2150537729
1275,0.2150537729
1276,0.2346040964
1277,0.2150537729
1278,0.2052785873
1279,0.2150537729
1280,0.3714565038
1281,0.4496578693
1282,0.4985337257
1283,0.4301075458
1284,0.3812316703
1285,0.3616813421
1286,0.4203323364
1287,0.3910068321
1288,0.3519061565
1289,0.2834799575
1290,0.2541544437
1291,0.2248289346
1292,0.2737047910
1293,0.3323558330
1294,0.4203323364
1295,0.6353860855
1296,0.6940371513
1297,0.8015640258
1298,0.8211143493
1299,0.8308895111
1300,0.8406646728
1301,0.7429130077
1302,0.7135874748
1303,0.7233626842
1304,0.6060606002
1305,0.4985337257
1306,0.4105571746
1307,0.3519061565
1308,0.2834799575
1309,0.2737047910
1310,0.2737047910
1311,0.2834799575
1312,0.2639296054
1313,0.2150537729
1314,0.2052785873
1315,0.2639296054
1316,0.3714565038
1317,0.5474095821
1318,0.5865102291
1319,0.5474095821
1320,0.5180840492
1321,0.5083088874
1322,0.4887585639
1323,0.4105571746
1324,0.3519061565
1325,0.3714565038
1326,0.3225806236
1327,0.3128054618
1328,0.3128054618
1329,0.3421309947
1330,0.3519061565
1331,0.3519061565
1332,0.3323558330
1333,0.2932551193
1334,0.2737047910
1335,0.2443792819
1336,0.2443792819
1337,0.2639296054
1338,0.2932551193
1339,0.3128054618
1340,0.3030303001
1341,0.2443792819
1342,0.2150537729
1343,0.1857282543
1344,0.1564027309
1345,0.1368523955
1346,0.1270772218
1347,0.1173020482
1348,0.0977517032
1349,0.0879765415
1350,0.0879765415
1351,0.0977517032
1352,0.0977517032
1353,0.0879765415
1354,0.0782013654
1355,0.0684261989
1356,0.0488758516
1357,0.0488758516
1358,0.0391006832
1359,0.0293255119
1360,0.0391006832
1361,0.0488758516
1362,0.0488758516
1363,0.0488758516
1364,0.0488758516
1365,0.0488758516
1366,0.0391006832
1367,0.0391006832
1368,0.0293255119
1369,0.0293255119
1370,0.0195503416
1371,0.0195503416
1372,0.0195503416
1373,0.0195503416
1374,0.0195503416
1375,0.0195503416
1376,0.0293255119
1377,0.0293255119
1378,0.0293255119
1379,0.0391006832
1380,0.0684261989
1381,0.0586510229
1382,0.0684261989
1383,0.0977517032
1384,0.0879765415
1385,0.0782013654
1386,0.0782013654
1387,0.0782013654
1388,0.0684261989
1389,0.0782013654
1390,0.1173020482
1391,0.1661779165
1392,0.1759530782
1393,0.1857282543
1394,0.1564027309
1395,0.1368523955
1396,0.1173020482
1397,0.0977517032
1398,0.0782013654
1399,0.0782013654
1400,0.0782013654
1401,0.0684261989
1402,0.0488758516
1403,0.0488758516
1404,0.0586510229
1405,0.0586510229
1406,0.0488758516
1407,0.0488758516
1408,0.0391006832
1409,0.0391006832
1410,0.0391006832
1411,0.0391006832
1412,0.0293255119
1413,0.0293255119
1414,0.0391006832
1415,0.0391006832
1416,0.0293255119
1417,0.0391006832
1418,0.0391006832
1419,0.0391006832
1420,0.0488758516
1421,0.0586510229
1422,0.0684261989
1423,0.0586510229
1424,0.0586510229
1425,0.0488758516
1426,0.0391006832
1427,0.0488758516
1428,0.0488758516
1429,0.0586510229
1430,0.0586510229
1431,0.0684261989
1432,0.0684261989
1433,0.0782013654
1434,0.0782013654
1435,0.0684261989
1436,0.0684261989
1437,0.0684261989
1438,0.0586510229
1439,0.0782013654
1440,0.0879765415
1441,0.0879765415
1442,0.0782013654
1443,0.0879765415
1444,0.0879765415
1445,0.1075268864
1446,0.1075268864
1447,0.1075268864
1448,0.1173020482
1449,0.1173020482
1450,0.1368523955
1451,0.1270772218
1452,0.1564027309
1453,0.1466275596
1454,0.1661779165
1455,0.1857282543
1456,0.1564027309
1457,0.1661779165
1458,0.1955034160
1459,0.2248289346
1460,0.2639296054
1461,0.2932551193
1462,0.3128054618
1463,0.3323558330
1464,0.3714565038
1465,0.4789833545
1466,0.4887585639
1467,0.4692081928
1468,0.4692081928
1469,0.4007820129
1470,0.3714565038
1471,0.3128054618
1472,0.2834799575
1473,0.2737047910
1474,0.2834799575
1475,0.2541544437
1476,0.2541544437
1477,0.3519061565
1478,0.3714565038
1479,0.4301075458
1480,0.4398827075
1481,0.4496578693
1482,0.4887585639
1483,0.5571847438
1484,0.5278592109
1485,0.4887585639
1486,0.5962854385
1487,0.4985337257
1488,0.4301075458
1489,0.3812316703
1490,0.3519061565
1491,0.3225806236
1492,0.3128054618
1493,0.2737047910
1494,0.2541544437
1495,0.2541544437
1496,0.2346040964
1497,0.2248289346
1498,0.2346040964
1499,0.2052785873
1500,0.1661779165
1501,0.1564027309
1502,0.1270772218
1503,0.1270772218
1504,0.1173020482
1505,0.1075268864
1506,0.1173020482
1507,0.1270772218
1508,0.1368523955
1509,0.2052785873
1510,0.2150537729
1511,0.2443792819
1512,0.2248289346
1513,0.2150537729
1514,0.1955034160
1515,0.1857282543
1516,0.2346040964
1517,0.2541544437
1518,0.2737047910
1519,0.3030303001
1520,0.3616813421
1521,0.3812316703
1522,0.3323558330
1523,0.2932551193
1524,0.2834799575
1525,0.2834799575
1526,0.3030303001
1527,0.3519061565
1528,0.3714565038
1529,0.3421309947
1530,0.3225806236
1531,0.2932551193
1532,0.2346040964
1533,0.2052785873
1534,0.1661779165
1535,0.1564027309
1536,0.1661779165
1537,0.1857282543
1538,0.1857282543
1539,0.1661779165
1540,0.1466275596
1541,0.1270772218
1542,0.1075268864
1543,0.0977517032
1544,0.1075268864
1545,0.1368523955
1546,0.1466275596
1547,0.1564027309
1548,0.1466275596
1549,0.1368523955
1550,0.1075268864
1551,0.0977517032
1552,0.0977517032
1553,0.0977517032
1554,0.0879765415
1555,0.0977517032
1556,0.0977517032
1557,0.0879765415
1558,0.0684261989
1559,0.0684261989
1560,0.0782013654
1561,0.0782013654
1562,0.0782013654
1563,0.0879765415
1564,0.0977517032
1565,0.1173020482
1566,0.1173020482
1567,0.1173020482
1568,0.1075268864
1569,0.0782013654
1570,0.0684261989
1571,0.0586510229
1572,0.0782013654
1573,0.0879765415
1574,0.0879765415
1575,0.0782013654
1576,0.0586510229
1577,0.0684261989
1578,0.0684261989
1579,0.0782013654
1580,0.0684261989
1581,0.0977517032
1582,0.1173020482
1583,0.1368523955
1584,0.1564027309
1585,0.1661779165
1586,0.1955034160
1587,0.1955034160
1588,0.1759530782
1589,0.1466275596
1590,0.1759530782
1591,0.1759530782
1592,0.1466275596
1593,0.1466275596
1594,0.1955034160
1595,0.1759530782
1596,0.2150537729
1597,0.2737047910
1598,0.2639296054
1599,0.2248289346
1600,0.1857282543
1601,0.1564027309
1602,0.1466275596
1603,0.1270772218
1604,0.1075268864
1605,0.0977517032
1606,0.0977517032
1607,0.0879765415
1608,0.0782013654
1609,0.0684261989
1610,0.0684261989
1611,0.0586510229
1612,0.0391006832
1613,0.0391006832
1614,0.0293255119
1615,0.0293255119
1616,0.0488758516
1617,0.0782013654
1618,0.0782013654
1619,0.0684261989
1620,0.0782013654
1621,0.0879765415
1622,0.0782013654
1623,0.0879765415
1624,0.0879765415
1625,0.0782013654
1626,0.0879765415
1627,0.0977517032
1628,0.0879765415
1629,0.0782013654
1630,0.0782013654
1631,0.0879765415
1632,0.0879765415
1633,0.1368523955
1634,0.1466275596
1635,0.1466275596
1636,0.1368523955
1637,0.1075268864
1638,0.0879765415
1639,0.1173020482
1640,0.1368523955
1641,0.1173020482
1642,0.1270772218
1643,0.1270772218
1644,0.1173020482
1645,0.1075268864
1646,0.1368523955
1647,0.1466275596
1648,0.1857282543
1649,0.1759530782
1650,0.2248289346
1651,0.2052785873
1652,0.2150537729
1653,0.2834799575
1654,0.2932551193
1655,0.2834799575
1656,0.2443792819
1657,0.2248289346
1658,0.1955034160
1659,0.2052785873
1660,0.2541544437
1661,0.2443792819
1662,0.2834799575
1663,0.2737047910
1664,0.2639296054
1665,0.2443792819
1666,0.3323558330
1667,0.3812316703
1668,0.4203323364
1669,0.4007820129
1670,0.3519061565
1671,0.3421309947
1672,0.3714565038
1673,0.4985337257
1674,0.5962854385
1675,0.5865102291
1676,0.7038123130
1677,0.8699902534
1678,0.8406646728
1679,0.9384163856
1680,1.1827956390
1681,1.1827956390
1682,1.1045943498
1683,1.0263929367
1684,1.0654937028
1685,1.1339198350
1686,0.9579667091
1687,0.7722384929
1688,0.6451612472
1689,0.5474095821
1690,0.4594330310
1691,0.3714565038
1692,0.3616813421
1693,0.3616813421
1694,0.2932551193
1695,0.2443792819
1696,0.2052785873
1697,0.1857282543
1698,0.1661779165
1699,0.1466275596
1700,0.1270772218
1701,0.1075268864
1702,0.1075268864
1703,0.1075268864
1704,0.1759530782
1705,0.1955034160
1706,0.1955034160
1707,0.1759530782
1708,0.1466275596
1709,0.1564027309
1710,0.1466275596
1711,0.1564027309
1712,0.1466275596
1713,0.1270772218
1714,0.1075268864
1715,0.0879765415
1716,0.0879765415
1717,0.0782013654
1718,0.0684261989
1719,0.1270772218
1720,0.1857282543
1721,0.2150537729
1722,0.3714565038
1723,0.4398827075
1724,0.5962854385
1725,0.6647116661
1726,0.5669599056
1727,0.4985337257
1728,0.4007820129
1729,0.3323558330
1730,0.2737047910
1731,0.2346040964
1732,0.1955034160
1733,0.1661779165
1734,0.1368523955
1735,0.1270772218
1736,0.1075268864
1737,0.1173020482
1738,0.1173020482
1739,0.0977517032
1740,0.0977517032
1741,0.0977517032
1742,0.0977517032
1743,0.0879765415
1744,0.0782013654
1745,0.0586510229
1746,0.0488758516
1747,0.0488758516
1748,0.0391006832
1749,0.0586510229
1750,0.0782013654
1751,0.0879765415
1752,0.0782013654
1753,0.0879765415
1754,0.0684261989
1755,0.0684261989
1756,0.0782013654
1757,0.0782013654
1758,0.0782013654
1759,0.0782013654
1760,0.0586510229
1761,0.0488758516
1762,0.0488758516
1763,0.0391006832
1764,0.0488758516
1765,0.0586510229
1766,0.0782013654
1767,0.0879765415
1768,0.0782013654
1769,0.0586510229
1770,0.0586510229
1771,0.0684261989
1772,0.0684261989
1773,0.0684261989
1774,0.0586510229
1775,0.0488758516
1776,0.0391006832
1777,0.0391006832
1778,0.0488758516
1779,0.0684261989
1780,0.0684261989
1781,0.0586510229
1782,0.0684261989
1783,0.0586510229
1784,0.0586510229
1785,0.0782013654
1786,0.0782013654
1787,0.0879765415
1788,0.0879765415
1789,0.0879765415
1790,0.0782013654
1791,0.0782013654
1792,0.0879765415
1793,0.0782013654
1794,0.0782013654
1795,0.0782013654
1796,0.0782013654
1797,0.0488758516
1798,0.0488758516
1799,0.0488758516
1800,0.0488758516
1801,0.0488758516
1802,0.0391006832
1803,0.0684261989
1804,0.0977517032
1805,0.1173020482
1806,0.0977517032
1807,0.0782013654
1808,0.0977517032
1809,0.1368523955
1810,0.1368523955
1811,0.1173020482
1812,0.1075268864
1813,0.1173020482
1814,0.0879765415
1815,0.0782013654
1816,0.0782013654
1817,0.0879765415
1818,0.0879765415
1819,0.0782013654
1820,0.0879765415
1821,0.1173020482
1822,0.1368523955
1823,0.1270772218
1824,0.1270772218
1825,0.0977517032
1826,0.0879765415
1827,0.0684261989
1828,0.0586510229
1829,0.0488758516
1830,0.0488758516
1831,0.0391006832
1832,0.0391006832
1833,0.0488758516
1834,0.0488758516
1835,0.0586510229
1836,0.0488758516
1837,0.0488758516
1838,0.0391006832
1839,0.0488758516
1840,0.0488758516
1841,0.0488758516
1842,0.0684261989
1843,0.0684261989
1844,0.0684261989
1845,0.0879765415
1846,0.0879765415
1847,0.0879765415
1848,0.0782013654
1849,0.0879765415
1850,0.0879765415
1851,0.0684261989
1852,0.0684261989
1853,0.0684261989
1854,0.0782013654
1855,0.0782013654
1856,0.0879765415
1857,0.0977517032
1858,0.0977517032
1859,0.0879765415
1860,0.1173020482
1861,0.1173020482
1862,0.1075268864
1863,0.1075268864
1864,0.1270772218
1865,0.1857282543
1866,0.2248289346
1867,0.2052785873
1868,0.1857282543
1869,0.1661779165
1870,0.1661779165
1871,0.1466275596
1872,0.1564027309
1873,0.1564027309
1874,0.1857282543
1875,0.2346040964
1876,0.3128054618
1877,0.3616813421
1878,0.3030303001
1879,0.2737047910
1880,0.2346040964
1881,0.2248289346
1882,0.2150537729
1883,0.2150537729
1884,0.2541544437
1885,0.3225806236
1886,0.3323558330
1887,0.2834799575
1888,0.2346040964
1889,0.1857282543
1890,0.1661779165
1891,0.1564027309
1892,0.1661779165
1893,0.1857282543
1894,0.2150537729
1895,0.1857282543
1896,0.2346040964
1897,0.3421309947
1898,0.3421309947
1899,0.3616813421
1900,0.3421309947
1901,0.3225806236
1902,0.3616813421
1903,0.3519061565
1904,0.3030303001
1905,0.2737047910
1906,0.2346040964
1907,0.2346040964
1908,0.3323558330
1909,0.3128054618
1910,0.2639296054
1911,0.2248289346
1912,0.1759530782
1913,0.1466275596
1914,0.1173020482
1915,0.0977517032
1916,0.0879765415
1917,0.0684261989
1918,0.0586510229
1919,0.0684261989
1920,0.0782013654
1921,0.0879765415
1922,0.0879765415
1923,0.0879765415
1924,0.1564027309
1925,0.1466275596
1926,0.1466275596
1927,0.1368523955
1928,0.1466275596
1929,0.1466275596
1930,0.1564027309
1931,0.2248289346
1932,0.2541544437
1933,0.2639296054
1934,0.2834799575
1935,0.2443792819
1936,0.1955034160
1937,0.1759530782
1938,0.1759530782
1939,0.1564027309
1940,0.1466275596
1941,0.1368523955
1942,0.1173020482
1943,0.1661779165
1944,0.1661779165
1945,0.1857282543
1946,0.1955034160
1947,0.1857282543
1948,0.1661779165
1949,0.1466275596
1950,0.1270772218
1951,0.1173020482
1952,0.1368523955
1953,0.1466275596
1954,0.1173020482
1955,0.0977517032
1956,0.0977517032
1957,0.0879765415
1958,0.0879765415
1959,0.0782013654
1960,0.0684261989
1961,0.0684261989
1962,0.0586510229
1963,0.0488758516
1964,0.0391006832
1965,0.0391006832
1966,0.0488758516
1967,0.0586510229
1968,0.0586510229
1969,0.0684261989
1970,0.0879765415
1971,0.0977517032
1972,0.1075268864
1973,0.1173020482
1974,0.1270772218
1975,0.1173020482
1976,0.0879765415
1977,0.0782013654
1978,0.0684261989
1979,0.0684261989
1980,0.0684261989
1981,0.0586510229
1982,0.0782013654
1983,0.0879765415
1984,0.0879765415
1985,0.0977517032
1986,0.0782013654
1987,0.0684261989
1988,0.0586510229
1989,0.0684261989
1990,0.0684261989
1991,0.0684261989
1992,0.0684261989
1993,0.0586510229
1994,0.0488758516
1995,0.0488758516
1996,0.0391006832
1997,0.0488758516
1998,0.0586510229
1999,0.0488758516
2000,0.0586510229
2001,1.0263929367
2002,0.8113391876
2003,0.6451612472
2004,0.5180840492
2005,0.4203323364
2006,0.3421309947
2007,0.2737047910
2008,0.2443792819
2009,0.2248289346
2010,0.2150537729
2011,0.1857282543
2012,0.1661779165
2013,0.1466275596
2014,0.1270772218
2015,0.1173020482
2016,0.1173020482
2017,0.1075268864
2018,0.1075268864
2019,0.0977517032
2020,0.0879765415
2021,0.0879765415
2022,0.0879765415
2023,0.0977517032
2024,0.0879765415
2025,0.0782013654
2026,0.0782013654
2027,0.0684261989
2028,0.0684261989
2029,0.0586510229
2030,0.0586510229
2031,0.0684261989
2032,0.0782013654
2033,0.0977517032
2034,0.0879765415
2035,0.0782013654
2036,0.0782013654
2037,0.0684261989
2038,0.0684261989
2039,0.0684261989
2040,0.0684261989
2041,0.0782013654
2042,0.0782013654
2043,0.0782013654
2044,0.0684261989
2045,0.0782013654
2046,0.0879765415
2047,0.0879765415
2048,0.0879765415
2049,0.0782013654
2050,0.0782013654
2051,0.0879765415
2052,0.0879765415
2053,0.0782013654
2054,0.0684261989
2055,0.0879765415
2056,0.0782013654
2057,0.0684261989
2058,0.0782013654
2059,0.0782013654
2060,0.0684261989
2061,0.0782013654
2062,0.0684261989
2063,0.0684261989
2064,0.0684261989
2065,0.0684261989
2066,0.0684261989
2067,0.0684261989
2068,0.0879765415
2069,0.0782013654
2070,0.0879765415
2071,0.0879765415
2072,0.1075268864
2073,0.1075268864
2074,0.1173020482
2075,0.1173020482
2076,0.1173020482
2077,0.1270772218
2078,0.1466275596
2079,0.1661779165
2080,0.1759530782
2081,0.1759530782
2082,0.1759530782
2083,0.1857282543
2084,0.1661779165
2085,0.1955034160
2086,0.1955034160
2087,0.1857282543
2088,0.2150537729
2089,0.2443792819
2090,0.2737047910
2091,0.2639296054
2092,0.2639296054
2093,0.2639296054
2094,0.2834799575
2095,0.2932551193
2096,0.4594330310
2097,0.7429130077
2098,0.7526881694
2099,0.7917888641
2100,0.7624633312
2101,0.6940371513
2102,0.5962854385
2103,0.5767350673
2104,0.5669599056
2105,0.5376344203
2106,0.4789833545
2107,0.4398827075
2108,0.4007820129
2109,0.3616813421
2110,0.3519061565
2111,0.3519061565
2112,0.4496578693
2113,0.7624633312
2114,1.0361680984
2115,1.1045943498
2116,0.9677418708
2117,0.9872922897
2118,1.0752688646
2119,1.0068426132
2120,0.8699902534
2121,0.8895405769
2122,0.8602150917
2123,0.7917888641
2124,0.6940371513
2125,0.5865102291
2126,0.4985337257
2127,0.4301075458
2128,0.4301075458
2129,0.3910068321
2130,0.3714565038
2131,0.4105571746
2132,0.3812316703
2133,0.3128054618
2134,0.2834799575
2135,0.2443792819
2136,0.2150537729
2137,0.1857282543
2138,0.1857282543
2139,0.2248289346
2140,0.2639296054
2141,0.2346040964
2142,0.2737047910
2143,0.3421309947
2144,0.3910068321
2145,0.3714565038
2146,0.3128054618
2147,0.2639296054
2148,0.2932551193
2149,0.3225806236
2150,0.3323558330
2151,0.2932551193
2152,0.2737047910
2153,0.2932551193
2154,0.2932551193
2155,0.2639296054
2156,0.3030303001
2157,0.2737047910
2158,0.2541544437
2159,0.2443792819
2160,0.2639296054
2161,0.2541544437
2162,0.2248289346
2163,0.1955034160
2164,0.1661779165
2165,0.1564027309
2166,0.1368523955
2167,0.1173020482
2168,0.1173020482
2169,0.1368523955
2170,0.1270772218
2171,0.1075268864
2172,0.1075268864
2173,0.1368523955
2174,0.1270772218
2175,0.1173020482
2176,0.0977517032
2177,0.1368523955
2178,0.1661779165
2179,0.1857282543
2180,0.1759530782
2181,0.1564027309
2182,0.1466275596
2183,0.1564027309
2184,0.1466275596
2185,0.1466275596
2186,0.1955034160
2187,0.1955034160
2188,0.1955034160
2189,0.1661779165
2190,0.1564027309
2191,0.1368523955
2192,0.1270772218
2193,0.1075268864
2194,0.0879765415
2195,0.0879765415
2196,0.0879765415
2197,0.0782013654
2198,0.0782013654
2199,0.0879765415
2200,0.0879765415
2201,0.0782013654
2202,0.0782013654
2203,0.0782013654
2204,0.0684261989
2205,0.0586510229
2206,0.0488758516
2207,0.0586510229
2208,0.0488758516
2209,0.0488758516
2210,0.0391006832
2211,0.0391006832
2212,0.0488758516
2213,0.0391006832
2214,0.0391006832
2215,0.0488758516
2216,0.0586510229
2217,0.0488758516
2218,0.0586510229
2219,0.0586510229
2220,0.0586510229
2221,0.0586510229
2222,0.0488758516
2223,0.0586510229
2224,0.0586510229
2225,0.0684261989
2226,0.0684261989
2227,0.0684261989
2228,0.0684261989
2229,0.0586510229
2230,0.0586510229
2231,0.0586510229
2232,0.0488758516
2233,0.0488758516
2234,0.0488758516
2235,0.0488758516
2236,0.0391006832
2237,0.0488758516
2238,0.0488758516
2239,0.0488758516
2240,0.0488758516
2241,0.0586510229
2242,0.0488758516
2243,0.0488758516
2244,0.0488758516
2245,0.0391006832
2246,0.0488758516
2247,0.0391006832
2248,0.0391006832
2249,0.0391006832
2250,0.0488758516
2251,0.0488758516
2252,0.0586510229
2253,0.0586510229
2254,0.0586510229
2255,0.0586510229
2256,0.0586510229
2257,0.0488758516
2258,0.0488758516
2259,0.0391006832
2260,0.0391006832
2261,0.0391006832
2262,0.0391006832
2263,0.0293255119
2264,0.0391006832
2265,0.0488758516
2266,0.0488758516
2267,0.0586510229
2268,0.0488758516
2269,0.0488758516
2270,0.0782013654
2271,0.0977517032
2272,0.0977517032
2273,0.1173020482
2274,0.1270772218
2275,0.1564027309
2276,0.1564027309
2277,0.1466275596
2278,0.1270772218
2279,0.1075268864
2280,0.0977517032
2281,0.1075268864
2282,0.1368523955
2283,0.1466275596
2284,0.1564027309
2285,0.1466275596
2286,0.1368523955
2287,0.1075268864
2288,0.1075268864
2289,0.1075268864
2290,0.1270772218
2291,0.1270772218
2292,0.1368523955
2293,0.1368523955
2294,0.1270772218
2295,0.1368523955
2296,0.1368523955
2297,0.1270772218
2298,0.1368523955
2299,0.1368523955
2300,0.1368523955
2301,0.1368523955
2302,0.1270772218
2303,0.1270772218
2304,0.1466275596
2305,0.1466275596
2306,0.1564027309
2307,0.1661779165
2308,0.1661779165
2309,0.1759530782
2310,0.1661779165
2311,0.1564027309
2312,0.1857282543
2313,0.1857282543
2314,0.2052785873
2315,0.2541544437
2316,0.3225806236
2317,0.3030303001
2318,0.3421309947
2319,0.3323558330
2320,0.3421309947
2321,0.3616813421
2322,0.3616813421
2323,0.3225806236
2324,0.3128054618
2325,0.3128054618
2326,0.2932551193
2327,0.2639296054
2328,0.2346040964
2329,0.2052785873
2330,0.1857282543
2331,0.1955034160
2332,0.2248289346
2333,0.2737047910
2334,0.3616813421
2335,0.4007820129
2336,0.4594330310
2337,0.8015640258
2338,0.8797654151
2339,0.9775171279
2340,0.9384163856
2341,0.8797654151
2342,0.8602150917
2343,0.8113391876
2344,0.7233626842
2345,0.8797654151
2346,0.8308895111
2347,0.8797654151
2348,0.8504399299
2349,0.7038123130
2350,0.5865102291
2351,0.5083088874
2352,0.5474095821
2353,0.5767350673
2354,0.5571847438
2355,0.5083088874
2356,0.5083088874
2357,0.4789833545
2358,0.4007820129
2359,0.3616813421
2360,0.3030303001
2361,0.2834799575
2362,0.2834799575
2363,0.2932551193
2364,0.2639296054
2365,0.2248289346
2366,0.2052785873
2367,0.2052785873
2368,0.1857282543
2369,0.1564027309
2370,0.1564027309
2371,0.1466275596
2372,0.1368523955
2373,0.1661779165
2374,0.2541544437
2375,0.2346040964
2376,0.3030303001
2377,0.3519061565
2378,0.3519061565
2379,0.3128054618
2380,0.3421309947
2381,0.3812316703
2382,0.3910068321
2383,0.3616813421
2384,0.2932551193
2385,0.2443792819
2386,0.2150537729
2387,0.2443792819
2388,0.2541544437
2389,0.2248289346
2390,0.2052785873
2391,0.2052785873
2392,0.2248289346
2393,0.2443792819
2394,0.2248289346
2395,0.2346040964
2396,0.2248289346
2397,0.2052785873
2398,0.1759530782
2399,0.1955034160
2400,0.1857282543
2401,0.1661779165
2402,0.1564027309
2403,0.1368523955
2404,0.1564027309
2405,0.1955034160
2406,0.1759530782
2407,0.1661779165
2408,0.1564027309
2409,0.1466275596
2410,0.2150537729
2411,0.2248289346
2412,0.2052785873
2413,0.1857282543
2414,0.1661779165
2415,0.1368523955
2416,0.1270772218
2417,0.1173020482
2418,0.1075268864
2419,0.0879765415
2420,0.0782013654
2421,0.0782013654
2422,0.0684261989
2423,0.0684261989
2424,0.0684261989
2425,0.0684261989
2426,0.0684261989
2427,0.0879765415
2428,0.0782013654
2429,0.0782013654
2430,0.0879765415
2431,0.0879765415
2432,0.0782013654
2433,0.0977517032
2434,0.0977517032
2435,0.1173020482
2436,0.1173020482
2437,0.1270772218
2438,0.1270772218
2439,0.1270772218
2440,0.1368523955
2441,0.1564027309
2442,0.1466275596
2443,0.1466275596
2444,0.1466275596
2445,0.1564027309
2446,0.1564027309
2447,0.1564027309
2448,0.1368523955
2449,0.1270772218
2450,0.1270772218
2451,0.1173020482
2452,0.1075268864
2453,0.1173020482
2454,0.1173020482
2455,0.1075268864
2456,0.0977517032
2457,0.1075268864
2458,0.1075268864
2459,0.0879765415
2460,0.0879765415
2461,0.0782013654
2462,0.0879765415
2463,0.0977517032
2464,0.0977517032
2465,0.0977517032
2466,0.1075268864
2467,0.1173020482
2468,0.1173020482
2469,0.1270772218
2470,0.1270772218
2471,0.1270772218
2472,0.1173020482
2473,0.1368523955
2474,0.1270772218
2475,0.1173020482
2476,0.1173020482
2477,0.1075268864
2478,0.1075268864
2479,0.0977517032
2480,0.0879765415
2481,0.0879765415
2482,0.0879765415
2483,0.0879765415
2484,0.0879765415
2485,0.0879765415
2486,0.0879765415
2487,0.0879765415
2488,0.0879765415
2489,0.0879765415
2490,0.0879765415
2491,0.0782013654
2492,0.0782013654
2493,0.0684261989
2494,0.0684261989
2495,0.0684261989
2496,0.0782013654
2497,0.0684261989
2498,0.0586510229
2499,0.0586510229
2500,0.0684261989
2501,0.0586510229
2502,0.0684261989
2503,0.0782013654
2504,0.0684261989
2505,0.0782013654
2506,0.0879765415
2507,0.0879765415
2508,0.0977517032
2509,0.1075268864
2510,0.1075268864
2511,0.0977517032
2512,0.0977517032
2513,0.1075268864
2514,0.1075268864
2515,0.1368523955
2516,0.1564027309
2517,0.1564027309
2518,0.1466275596
2519,0.1759530782
2520,0.1661779165
2521,0.1661779165
2522,0.1661779165
2523,0.1759530782
2524,0.1466275596
2525,0.1564027309
2526,0.1466275596
2527,0.1564027309
2528,0.1564027309
2529,0.1564027309
2530,0.1759530782
2531,0.2150537729
2532,0.2150537729
2533,0.2052785873
2534,0.2150537729
2535,0.2443792819
2536,0.2346040964
2537,0.2150537729
2538,0.2052785873
2539,0.2346040964
2540,0.2248289346
2541,0.1955034160
2542,0.1759530782
2543,0.2346040964
2544,0.4105571746
2545,0.5083088874
2546,0.4692081928
2547,0.4007820129
2548,0.3519061565
2549,0.3421309947
2550,0.3323558330
2551,0.3030303001
2552,0.2932551193
2553,0.3128054618
2554,0.3421309947
2555,0.3128054618
2556,0.2834799575
2557,0.2541544437
2558,0.2737047910
2559,0.2834799575
2560,0.2834799575
2561,0.3714565038
2562,0.3714565038
2563,0.4398827075
2564,0.6451612472
2565,0.6744868278
2566,0.6158357620
2567,0.5571847438
2568,0.4594330310
2569,0.4007820129
2570,0.3910068321
2571,0.4203323364
2572,0.4301075458
2573,0.4105571746
2574,0.4203323364
2575,0.4692081928
2576,0.4594330310
2577,0.4398827075
2578,0.4594330310
2579,0.4594330310
2580,0.4007820129
2581,0.3616813421
2582,0.3030303001
2583,0.2443792819
2584,0.2052785873
2585,0.2052785873
2586,0.1857282543
2587,0.1466275596
2588,0.1466275596
2589,0.1368523955
2590,0.1075268864
2591,0.1270772218
2592,0.1368523955
2593,0.1466275596
2594,0.1759530782
2595,0.1564027309
2596,0.1368523955
2597,0.1368523955
2598,0.1368523955
2599,0.1661779165
2600,0.1857282543
2601,0.1759530782
2602,0.2052785873
2603,0.2150537729
2604,0.2150537729
2605,0.1955034160
2606,0.2346040964
2607,0.3225806236
2608,0.3225806236
2609,0.2737047910
2610,0.2737047910
2611,0.2834799575
2612,0.2932551193
2613,0.2639296054
2614,0.2248289346
2615,0.1955034160
2616,0.1661779165
2617,0.1564027309
2618,0.1466275596
2619,0.1368523955
2620,0.1368523955
2621,0.1270772218
2622,0.1270772218
2623,0.1173020482
2624,0.1075268864
2625,0.1270772218
2626,0.1466275596
2627,0.1368523955
2628,0.1173020482
2629,0.1173020482
2630,0.1173020482
2631,0.1173020482
2632,0.1759530782
2633,0.1759530782
2634,0.1564027309
2635,0.1466275596
2636,0.1368523955
2637,0.1564027309
2638,0.1564027309
2639,0.1564027309
2640,0.1368523955
2641,0.1270772218
2642,0.1075268864
2643,0.0879765415
2644,0.1075268864
2645,0.1173020482
2646,0.0977517032
2647,0.1173020482
2648,0.1368523955
2649,0.1466275596
2650,0.1466275596
2651,0.1368523955
2652,0.1173020482
2653,0.1173020482
2654,0.0977517032
2655,0.1075268864
2656,0.0977517032
2657,0.0879765415
2658,0.0879765415
2659,0.1075268864
2660,0.1075268864
2661,0.0977517032
2662,0.0879765415
2663,0.1173020482
2664,0.0977517032
2665,0.0977517032
2666,0.0977517032
2667,0.0879765415
2668,0.0879765415
2669,0.0879765415
2670,0.0782013654
2671,0.0977517032
2672,0.0879765415
2673,0.0782013654
2674,0.0684261989
2675,0.0782013654
2676,0.0782013654
2677,0.0684261989
2678,0.0586510229
2679,0.0586510229
2680,0.0586510229
2681,0.0488758516
2682,0.0586510229
2683,0.0488758516
2684,0.0488758516
2685,0.0488758516
2686,0.0488758516
2687,0.0391006832
2688,0.0391006832
2689,0.0391006832
2690,0.0391006832
2691,0.0488758516
2692,0.0488758516
2693,0.0586510229
2694,0.0586510229
2695,0.0586510229
2696,0.0684261989
2697,0.0586510229
2698,0.0488758516
2699,0.0488758516
2700,0.0488758516
2701,0.0488758516
2702,0.0586510229
2703,0.0782013654
2704,0.0684261989
2705,0.0586510229
2706,0.0586510229
2707,0.0586510229
2708,0.0488758516
2709,0.0488758516
2710,0.0488758516
2711,0.0391006832
2712,0.0391006832
2713,0.0391006832
2714,0.0391006832
2715,0.0293255119
2716,0.0293255119
2717,0.0293255119
2718,0.0293255119
2719,0.0293255119
2720,0.0293255119
2721,0.0293255119
2722,0.0293255119
2723,0.0293255119
2724,0.0391006832
2725,0.0684261989
2726,0.0782013654
2727,0.0879765415
2728,0.0879765415
2729,0.0879765415
2730,0.0782013654
2731,0.0782013654
2732,0.0879765415
2733,0.0879765415
2734,0.0879765415
2735,0.0782013654
2736,0.0782013654
2737,0.0684261989
2738,0.0684261989
2739,0.0586510229
2740,0.0586510229
2741,0.0488758516
2742,0.0586510229
2743,0.0586510229
2744,0.0586510229
2745,0.0684261989
2746,0.0586510229
2747,0.0684261989
2748,0.0684261989
2749,0.0684261989
2750,0.0684261989
2751,0.0684261989
2752,0.0586510229
2753,0.0684261989
2754,0.0586510229
2755,0.0488758516
2756,0.0586510229
2757,0.0586510229
2758,0.0684261989
2759,0.0684261989
2760,0.0684261989
2761,0.0684261989
2762,0.0684261989
2763,0.0782013654
2764,0.0782013654
2765,0.0782013654
2766,0.0782013654
2767,0.0879765415
2768,0.0879765415
2769,0.0879765415
2770,0.0977517032
2771,0.1075268864
2772,0.1173020482
2773,0.1368523955
2774,0.1466275596
2775,0.1368523955
2776,0.1564027309
2777,0.2052785873
2778,0.2541544437
2779,0.2541544437
2780,0.2248289346
2781,0.3225806236
2782,0.3519061565
2783,0.3323558330
2784,0.4105571746
2785,0.4789833545
2786,0.5376344203
2787,0.5865102291
2788,0.5767350673
2789,0.5180840492
2790,0.5376344203
2791,0.6647116661
2792,0.7135874748
2793,0.6842619895
2794,0.5962854385
2795,0.6353860855
2796,0.6549364089
2797,0.8406646728
2798,0.9677418708
2799,0.9872922897
2800,0.9775171279
2801,0.9677418708
2802,1.3489736318
2803,1.8768328666
2804,1.7595307826
2805,1.4956011772
2806,1.3489736318
2807,1.2805473804
2808,1.1045943498
2809,0.8993157386
2810,0.7624633312
2811,0.7429130077
2812,0.8015640258
2813,0.7624633312
2814,0.6451612472
2815,0.5474095821
2816,0.4789833545
2817,0.4105571746
2818,0.4105571746
2819,0.4398827075
2820,0.4887585639
2821,0.4496578693
2822,0.3910068321
2823,0.4301075458
2824,0.4105571746
2825,0.3519061565
2826,0.2932551193
2827,0.2541544437
2828,0.2346040964
2829,0.2443792819
2830,0.2639296054
2831,0.2737047910
2832,0.2639296054
2833,0.2248289346
2834,0.1955034160
2835,0.2248289346
2836,0.2248289346
2837,0.2248289346
2838,0.2346040964
2839,0.2150537729
2840,0.1857282543
2841,0.1661779165
2842,0.1759530782
2843,0.1661779165
2844,0.1368523955
2845,0.1270772218
2846,0.1270772218
2847,0.1270772218
2848,0.1270772218
2849,0.1270772218
2850,0.1564027309
2851,0.1368523955
2852,0.1270772218
2853,0.1173020482
2854,0.1075268864
2855,0.1075268864
2856,0.0977517032
2857,0.0977517032
2858,0.1075268864
2859,0.1270772218
2860,0.1368523955
2861,0.1368523955
2862,0.1173020482
2863,0.1075268864
2864,0.0977517032
2865,0.0879765415
2866,0.0782013654
2867,0.0782013654
2868,0.0684261989
2869,0.0684261989
2870,0.0684261989
2871,0.0684261989
2872,0.0684261989
2873,0.0684261989
2874,0.0879765415
2875,0.1173020482
2876,0.1173020482
2877,0.1173020482
2878,0.1075268864
2879,0.0977517032
2880,0.0977517032
2881,0.0879765415
2882,0.0782013654
2883,0.0782013654
2884,0.0684261989
2885,0.0684261989
2886,0.0684261989
2887,0.0586510229
2888,0.0586510229
2889,0.0488758516
2890,0.0586510229
2891,0.0586510229
2892,0.0586510229
2893,0.0488758516
2894,0.0488758516
2895,0.0391006832
2896,0.0488758516
2897,0.0586510229
2898,0.0488758516
2899,0.0488758516
2900,0.0488758516
2901,0.0391006832
2902,0.0391006832
2903,0.0391006832
2904,0.0391006832
2905,0.0293255119
2906,0.0391006832
2907,0.0391006832
2908,0.0293255119
2909,0.0293255119
2910,0.0293255119
2911,0.0293255119
2912,0.0293255119
2913,0.0293255119
2914,0.0293255119
2915,0.0293255119
2916,0.0391006832
2917,0.0391006832
2918,0.0293255119
2919,0.0391006832
2920,0.0293255119
2921,0.0391006832
2922,0.0391006832
2923,0.0391006832
2924,0.0391006832
2925,0.0391006832
2926,0.0391006832
2927,0.0391006832
2928,0.0391006832
2929,0.0391006832
2930,0.0488758516
2931,0.0391006832
2932,0.0391006832
2933,0.0391006832
2934,0.0488758516
2935,0.0488758516
2936,0.0391006832
2937,0.0488758516
2938,0.0488758516
2939,0.0586510229
2940,0.0488758516
2941,0.0488758516
2942,0.0488758516
2943,0.0488758516
2944,0.0586510229
2945,0.0684261989
2946,0.0684261989
2947,0.0782013654
2948,0.0879765415
2949,0.0782013654
2950,0.0782013654
2951,0.0782013654
2952,0.0782013654
2953,0.0782013654
2954,0.0782013654
2955,0.0879765415
2956,0.0782013654
2957,0.0879765415
2958,0.0879765415
2959,0.0879765415
2960,0.0879765415
2961,0.0977517032
2962,0.0879765415
2963,0.0879765415
2964,0.0977517032
2965,0.1075268864
2966,0.1173020482
2967,0.1173020482
2968,0.1075268864
2969,0.1173020482
2970,0.1173020482
2971,0.1270772218
2972,0.1270772218
2973,0.1368523955
2974,0.1466275596
2975,0.1466275596
2976,0.1564027309
2977,0.1857282543
2978,0.1955034160
2979,0.1955034160
2980,0.1955034160
2981,0.1857282543
2982,0.1661779165
2983,0.1857282543
2984,0.1857282543
2985,0.1955034160
2986,0.1857282543
2987,0.1661779165
2988,0.1564027309
2989,0.1661779165
2990,0.1955034160
2991,0.3519061565
2992,0.4594330310
2993,0.6842619895
2994,0.8993157386
2995,0.7331378459
2996,0.8113391876
2997,0.7429130077
2998,0.6158357620
2999,0.5376344203
3000,0.5669599056
3001,0.7233626842
3002,1.2805473804
3003,1.2609970569
3004,1.3391984701
3005,1.2609970569
3006,1.2414467334
3007,1.1143695116
3008,0.9970674514
3009,0.9677418708
3010,0.8993157386
3011,0.7526881694
3012,0.6549364089
3013,0.5669599056
3014,0.5180840492
3015,0.4692081928
3016,0.4301075458
3017,0.3812316703
3018,0.3323558330
3019,0.2834799575
3020,0.2541544437
3021,0.2737047910
3022,0.2541544437
3023,0.2346040964
3024,0.2248289346
3025,0.2052785873
3026,0.2150537729
3027,0.1955034160
3028,0.2052785873
3029,0.1759530782
3030,0.1564027309
3031,0.1955034160
3032,0.2150537729
3033,0.2150537729
3034,0.1955034160
3035,0.2052785873
3036,0.1955034160
3037,0.1857282543
3038,0.1759530782
3039,0.1759530782
3040,0.1759530782
3041,0.1857282543
3042,0.1661779165
3043,0.1955034160
3044,0.1857282543
3045,0.1955034160
3046,0.1759530782
3047,0.1564027309
3048,0.1564027309
3049,0.1466275596
3050,0.1466275596
3051,0.1173020482
3052,0.1173020482
3053,0.1270772218
3054,0.1270772218
3055,0.1368523955
3056,0.1466275596
3057,0.1564027309
3058,0.1564027309
3059,0.1661779165
3060,0.1564027309
3061,0.1857282543
3062,0.2248289346
3063,0.2443792819
3064,0.2248289346
3065,0.3030303001
3066,0.2932551193
3067,0.2834799575
3068,0.3128054618
3069,0.2834799575
3070,0.3225806236
3071,0.3421309947
3072,0.2932551193
3073,0.2443792819
3074,0.2346040964
3075,0.2346040964
3076,0.2248289346
3077,0.2150537729
3078,0.2052785873
3079,0.1857282543
3080,0.1955034160
3081,0.1759530782
3082,0.1661779165
3083,0.1661779165
3084,0.1466275596
3085,0.1466275596
3086,0.1466275596
3087,0.1466275596
3088,0.1466275596
3089,0.1270772218
3090,0.1173020482
3091,0.1173020482
3092,0.1075268864
3093,0.0977517032
3094,0.1075268864
3095,0.1075268864
3096,0.0977517032
3097,0.1270772218
3098,0.1270772218
3099,0.1368523955
3100,0.1564027309
3101,0.2248289346
3102,0.2443792819
3103,0.2248289346
3104,0.2346040964
3105,0.2248289346
3106,0.2248289346
3107,0.2052785873
3108,0.2052785873
3109,0.2248289346
3110,0.2443792819
3111,0.2248289346
3112,0.1955034160
3113,0.1857282543
3114,0.1955034160
3115,0.2346040964
3116,0.2443792819
3117,0.2443792819
3118,0.2346040964
3119,0.1955034160
3120,0.1759530782
3121,0.1759530782
3122,0.2052785873
3123,0.2541544437
3124,0.2737047910
3125,0.2541544437
3126,0.2346040964
3127,0.2052785873
3128,0.1759530782
3129,0.1466275596
3130,0.1368523955
3131,0.1270772218
3132,0.1075268864
3133,0.0977517032
3134,0.1075268864
3135,0.1270772218
3136,0.1173020482
3137,0.1173020482
3138,0.0977517032
3139,0.1075268864
3140,0.1075268864
3141,0.1075268864
3142,0.0977517032
3143,0.0879765415
3144,0.0879765415
3145,0.0782013654
3146,0.0782013654
3147,0.0782013654
3148,0.0684261989
3149,0.0684261989
3150,0.0782013654
3151,0.0879765415
3152,0.0879765415
3153,0.0879765415
3154,0.0782013654
3155,0.0879765415
3156,0.0782013654
3157,0.0684261989
3158,0.0782013654
3159,0.0879765415
3160,0.0879765415
3161,0.0879765415
3162,0.0782013654
3163,0.0782013654
3164,0.0684261989
3165,0.0782013654
3166,0.0782013654
3167,0.0879765415
3168,0.0782013654
3169,0.0782013654
3170,0.0879765415
3171,0.0879765415
3172,0.0782013654
3173,0.0879765415
3174,0.0977517032
3175,0.1075268864
3176,0.1173020482
3177,0.1270772218
3178,0.1270772218
3179,0.1270772218
3180,0.1173020482
3181,0.1270772218
3182,0.1466275596
3183,0.1564027309
3184,0.1759530782
3185,0.1759530782
3186,0.1661779165
3187,0.1759530782
3188,0.1759530782
3189,0.2052785873
3190,0.2052785873
3191,0.2052785873
3192,0.2248289346
3193,0.2639296054
3194,0.2639296054
3195,0.2443792819
3196,0.2346040964
3197,0.2150537729
3198,0.1955034160
3199,0.1955034160
3200,0.2052785873
3201,0.2052785873
3202,0.1857282543
3203,0.2052785873
3204,0.2639296054
3205,0.3421309947
3206,0.3519061565
3207,0.4007820129
3208,0.4496578693
3209,0.5180840492
3210,0.5278592109
3211,0.5278592109
3212,0.5767350673
3213,0.8797654151
3214,1.0654937028
3215,1.0557184219
3216,0.9677418708
3217,1.0948191833
3218,1.0068426132
3219,0.9286412239
3220,0.8015640258
3221,0.7038123130
3222,0.6060606002
3223,0.5571847438
3224,0.5180840492
3225,0.4789833545
3226,0.4007820129
3227,0.3714565038
3228,0.3421309947
3229,0.2932551193
3230,0.2541544437
3231,0.2248289346
3232,0.1955034160
3233,0.1955034160
3234,0.1857282543
3235,0.1955034160
3236,0.2052785873
3237,0.2150537729
3238,0.2248289346
3239,0.1955034160
3240,0.2346040964
3241,0.2932551193
3242,0.3812316703
3243,0.3225806236
3244,0.3714565038
3245,0.4398827075
3246,0.3812316703
3247,0.3812316703
3248,0.3519061565
3249,0.3812316703
3250,0.3225806236
3251,0.2932551193
3252,0.2541544437
3253,0.2248289346
3254,0.2052785873
3255,0.1759530782
3256,0.2248289346
3257,0.2737047910
3258,0.2639296054
3259,0.2346040964
3260,0.2052785873
3261,0.1955034160
3262,0.1759530782
3263,0.1564027309
3264,0.1564027309
3265,0.1564027309
3266,0.1466275596
3267,0.1661779165
3268,0.1661779165
3269,0.1564027309
3270,0.1368523955
3271,0.1173020482
3272,0.1075268864
3273,0.0977517032
3274,0.0879765415
3275,0.0782013654
3276,0.0684261989
3277,0.0879765415
3278,0.0879765415
3279,0.0879765415
3280,0.0879765415
3281,0.0879765415
3282,0.0977517032
3283,0.0879765415
3284,0.0879765415
3285,0.0782013654
3286,0.0879765415
3287,0.0977517032
3288,0.0879765415
3289,0.0879765415
3290,0.0782013654
3291,0.0782013654
3292,0.0879765415
3293,0.0879765415
3294,0.0782013654
3295,0.0684261989
3296,0.0586510229
3297,0.0684261989
3298,0.0586510229
3299,0.0684261989
3300,0.0586510229
3301,0.0586510229
3302,0.0684261989
3303,0.0586510229
3304,0.0586510229
3305,0.0586510229
3306,0.0684261989
3307,0.0684261989
3308,0.0586510229
3309,0.0684261989
3310,0.0684261989
3311,0.0684261989
3312,0.0782013654
3313,0.0879765415
3314,0.1173020482
3315,0.1955034160
3316,0.1955034160
3317,0.2346040964
3318,0.2541544437
3319,0.2932551193
3320,0.3128054618
3321,0.3128054618
3322,0.3030303001
3323,0.2737047910
3324,0.2248289346
3325,0.1857282543
3326,0.1564027309
3327,0.1368523955
3328,0.1270772218
3329,0.1270772218
3330,0.1270772218
3331,0.1173020482
3332,0.1270772218
3333,0.1368523955
3334,0.1270772218
3335,0.1368523955
3336,0.1466275596
3337,0.1368523955
3338,0.1173020482
3339,0.1368523955
3340,0.1368523955
3341,0.1270772218
3342,0.1466275596
3343,0.1368523955
3344,0.1368523955
3345,0.1270772218
3346,0.1368523955
3347,0.1270772218
3348,0.1173020482
3349,0.1270772218
3350,0.1270772218
3351,0.1075268864
3352,0.1075268864
3353,0.1368523955
3354,0.1270772218
3355,0.0977517032
3356,0.0977517032
3357,0.1075268864
3358,0.1075268864
3359,0.0977517032
3360,0.0879765415
3361,0.0782013654
3362,0.0782013654
3363,0.0782013654
3364,0.0879765415
3365,0.0977517032
3366,0.0879765415
3367,0.0782013654
3368,0.0782013654
3369,0.0879765415
3370,0.0782013654
3371,0.0782013654
3372,0.0977517032
3373,0.0879765415
3374,0.0782013654
3375,0.1075268864
3376,0.0977517032
3377,0.0879765415
3378,0.0879765415
3379,0.0879765415
3380,0.0879765415
3381,0.0782013654
3382,0.0782013654
3383,0.0782013654
3384,0.0782013654
3385,0.0684261989
3386,0.0782013654
3387,0.0879765415
3388,0.0879765415
3389,0.0879765415
3390,0.1075268864
3391,0.1075268864
3392,0.0977517032
3393,0.0977517032
3394,0.0977517032
3395,0.1075268864
3396,0.1173020482
3397,0.1173020482
3398,0.1173020482
3399,0.1368523955
3400,0.1466275596
3401,0.1661779165
3402,0.1564027309
3403,0.1661779165
3404,0.1857282543
3405,0.1857282543
3406,0.1857282543
3407,0.2248289346
3408,0.2052785873
3409,0.2150537729
3410,0.1955034160
3411,0.2443792819
3412,0.2639296054
3413,0.2541544437
3414,0.2248289346
3415,0.2052785873
3416,0.1759530782
3417,0.2443792819
3418,0.2737047910
3419,0.2834799575
3420,0.3128054618
3421,0.3225806236
3422,0.3128054618
3423,0.3030303001
3424,0.2932551193
3425,0.3421309947
3426,0.3519061565
3427,0.3421309947
3428,0.3714565038
3429,0.3910068321
3430,0.3812316703
3431,0.3910068321
3432,0.3616813421
3433,0.3910068321
3434,0.4203323364
3435,0.3910068321
3436,0.3616813421
3437,0.3714565038
3438,0.3323558330
3439,0.4105571746
3440,0.4789833545
3441,0.5083088874
3442,0.5278592109
3443,0.7233626842
3444,0.9579667091
3445,0.9188660621
3446,0.8308895111
3447,0.7624633312
3448,0.6549364089
3449,0.5865102291
3450,0.5180840492
3451,0.4496578693
3452,0.4007820129
3453,0.3812316703
3454,0.3225806236
3455,0.3225806236
3456,0.3519061565
3457,0.3225806236
3458,0.2737047910
3459,0.2639296054
3460,0.2346040964
3461,0.2346040964
3462,0.2248289346
3463,0.2150537729
3464,0.2346040964
3465,0.2541544437
3466,0.2737047910
3467,0.2639296054
3468,0.2443792819
3469,0.2248289346
3470,0.2346040964
3471,0.2443792819
3472,0.2052785873
3473,0.1759530782
3474,0.1759530782
3475,0.1759530782
3476,0.1759530782
3477,0.1661779165
3478,0.1759530782
3479,0.1759530782
3480,0.1661779165
3481,0.1368523955
3482,0.1173020482
3483,0.1173020482
3484,0.1270772218
3485,0.1270772218
3486,0.1173020482
3487,0.1173020482
3488,0.1368523955
3489,0.1270772218
3490,0.1075268864
3491,0.0977517032
3492,0.0977517032
3493,0.0879765415
3494,0.0879765415
3495,0.0879765415
3496,0.0782013654
3497,0.0782013654
3498,0.0782013654
3499,0.0782013654
3500,0.0977517032
3501,0.1075268864
3502,0.0977517032
3503,0.0879765415
3504,0.0977517032
3505,0.0879765415
3506,0.0782013654
3507,0.0684261989
3508,0.0782013654
3509,0.0782013654
3510,0.0684261989
3511,0.0586510229
3512,0.0684261989
3513,0.0782013654
3514,0.0684261989
3515,0.0684261989
3516,0.0684261989
3517,0.0782013654
3518,0.0684261989
3519,0.0782013654
3520,0.0684261989
3521,0.0782013654
3522,0.0684261989
3523,0.0782013654
3524,0.0586510229
3525,0.0586510229
3526,0.0684261989
3527,0.0684261989
3528,0.0684261989
3529,0.0684261989
3530,0.0684261989
3531,0.0684261989
3532,0.0782013654
3533,0.0782013654
3534,0.0782013654
3535,0.0782013654
3536,0.0684261989
3537,0.0684261989
3538,0.0684261989
3539,0.0782013654
3540,0.0879765415
3541,0.0879765415
3542,0.0782013654
3543,0.0782013654
3544,0.0782013654
3545,0.0879765415
3546,0.0879765415
3547,0.0977517032
3548,0.1075268864
3549,0.1368523955
3550,0.1564027309
3551,0.1759530782
3552,0.1857282543
3553,0.1857282543
3554,0.1857282543
3555,0.1564027309
3556,0.1270772218
3557,0.1368523955
3558,0.1368523955
3559,0.1368523955
3560,0.1564027309
3561,0.1564027309
3562,0.1368523955
3563,0.1368523955
3564,0.1270772218
3565,0.1270772218
3566,0.1564027309
3567,0.2052785873
3568,0.2346040964
3569,0.2443792819
3570,0.2248289346
3571,0.1955034160
3572,0.1661779165
3573,0.1661779165
3574,0.1368523955
3575,0.1075268864
3576,0.1075268864
3577,0.0977517032
3578,0.0879765415
3579,0.0684261989
3580,0.0782013654
3581,0.0782013654
3582,0.0879765415
3583,0.0879765415
3584,0.0782013654
3585,0.0782013654
3586,0.0879765415
3587,0.0879765415
3588,0.0879765415
3589,0.0684261989
3590,0.0782013654
3591,0.0684261989
3592,0.0586510229
3593,0.0684261989
3594,0.0586510229
3595,0.0586510229
3596,0.0684261989
3597,0.0684261989
3598,0.0782013654
3599,0.0879765415
3600,0.0879765415
3601,0.0879765415
3602,0.0879765415
3603,0.0782013654
3604,0.0684261989
3605,0.0782013654
3606,0.0782013654
3607,0.0782013654
3608,0.0879765415
3609,0.0782013654
3610,0.0977517032
3611,0.1075268864
3612,0.0977517032
3613,0.0977517032
3614,0.1075268864
3615,0.1173020482
3616,0.1075268864
3617,0.1173020482
3618,0.1173020482
3619,0.1270772218
3620,0.1466275596
3621,0.1564027309
3622,0.1564027309
3623,0.1759530782
3624,0.1857282543
3625,0.1759530782
3626,0.1661779165
3627,0.1857282543
3628,0.1661779165
3629,0.1759530782
3630,0.1857282543
3631,0.1857282543
3632,0.1857282543
3633,0.1759530782
3634,0.1857282543
3635,0.1759530782
3636,0.1857282543
3637,0.2052785873
3638,0.2052785873
3639,0.2150537729
3640,0.1857282543
3641,0.1857282543
3642,0.1857282543
3643,0.1759530782
3644,0.1857282543
3645,0.1955034160
3646,0.2052785873
3647,0.2248289346
3648,0.2346040964
3649,0.2248289346
3650,0.2248289346
3651,0.2248289346
3652,0.2541544437
3653,0.2639296054
3654,0.2639296054
3655,0.3910068321
3656,0.6060606002
3657,0.8699902534
3658,0.9775171279
3659,1.0166177749
3660,1.7595307826
3661,1.4956011772
3662,1.4271749496
3663,1.3196481466
3664,1.1436949968
3665,1.0068426132
3666,0.9384163856
3667,0.8504399299
3668,0.7722384929
3669,0.6549364089
3670,0.5669599056
3671,0.4887585639
3672,0.4203323364
3673,0.3714565038
3674,0.3421309947
3675,0.3030303001
3676,0.2639296054
3677,0.2248289346
3678,0.1955034160
3679,0.1759530782
3680,0.1661779165
3681,0.1564027309
3682,0.1466275596
3683,0.1857282543
3684,0.2248289346
3685,0.2443792819
3686,0.3128054618
3687,0.2932551193
3688,0.2639296054
3689,0.2248289346
3690,0.1955034160
3691,0.2052785873
3692,0.2150537729
3693,0.2052785873
3694,0.1955034160
3695,0.2150537729
3696,0.2346040964
3697,0.2346040964
3698,0.2150537729
3699,0.1955034160
3700,0.2150537729
3701,0.1857282543
3702,0.1857282543
3703,0.1857282543
3704,0.1564027309
3705,0.1466275596
3706,0.1368523955
3707,0.1368523955
3708,0.1368523955
3709,0.1173020482
3710,0.1173020482
3711,0.1075268864
3712,0.0977517032
3713,0.0879765415
3714,0.0782013654
3715,0.0684261989
3716,0.0684261989
3717,0.0586510229
3718,0.0586510229
3719,0.0586510229
3720,0.0684261989
3721,0.0684261989
3722,0.0586510229
3723,0.0684261989
3724,0.0684261989
3725,0.0684261989
3726,0.0879765415
3727,0.0977517032
3728,0.0879765415
3729,0.0782013654
3730,0.0782013654
3731,0.0879765415
3732,0.0879765415
3733,0.0782013654
3734,0.0782013654
3735,0.0782013654
3736,0.0782013654
3737,0.0782013654
3738,0.0684261989
3739,0.0684261989
3740,0.0684261989
3741,0.0684261989
3742,0.0782013654
3743,0.0782013654
3744,0.0684261989
3745,0.0782013654
3746,0.0782013654
3747,0.0782013654
3748,0.0879765415
3749,0.0977517032
3750,0.1173020482
3751,0.1075268864
3752,0.0977517032
3753,0.0977517032
3754,0.0879765415
3755,0.1270772218
3756,0.1466275596
3757,0.1466275596
3758,0.1466275596
3759,0.1661779165
3760,0.1466275596
3761,0.1564027309
3762,0.2052785873
3763,0.2443792819
3764,0.2248289346
3765,0.2150537729
3766,0.2248289346
3767,0.2150537729
3768,0.2248289346
3769,0.2150537729
3770,0.1857282543
3771,0.1759530782
3772,0.1466275596
3773,0.1466275596
3774,0.1368523955
3775,0.1466275596
3776,0.1466275596
3777,0.1564027309
3778,0.1564027309
3779,0.1564027309
3780,0.1564027309
3781,0.1661779165
3782,0.1368523955
3783,0.1173020482
3784,0.1075268864
3785,0.1270772218
3786,0.1173020482
3787,0.1075268864
3788,0.1173020482
3789,0.1173020482
3790,0.1075268864
3791,0.1173020482
3792,0.1368523955
3793,0.1564027309
3794,0.1759530782
3795,0.1857282543
3796,0.1857282543
3797,0.1466275596
3798,0.1466275596
3799,0.1368523955
3800,0.1368523955
3801,0.1466275596
3802,0.1564027309
3803,0.1368523955
3804,0.1270772218
3805,0.1173020482
3806,0.0977517032
3807,0.0977517032
3808,0.0977517032
3809,0.0977517032
3810,0.1173020482
3811,0.1173020482
3812,0.1075268864
3813,0.0977517032
3814,0.0782013654
3815,0.0782013654
3816,0.0879765415
3817,0.0782013654
3818,0.0782013654
3819,0.0879765415
3820,0.0977517032
3821,0.0977517032
3822,0.0879765415
3823,0.0977517032
3824,0.0879765415
3825,0.1173020482
3826,0.1173020482
3827,0.1173020482
3828,0.1270772218
3829,0.1173020482
3830,0.1270772218
3831,0.1173020482
3832,0.1075268864
3833,0.1075268864
3834,0.1075268864
3835,0.1075268864
3836,0.0977517032
3837,0.0879765415
3838,0.0879765415
3839,0.0879765415
3840,0.0879765415
3841,0.0977517032
3842,0.1075268864
3843,0.0977517032
3844,0.0879765415
3845,0.0977517032
3846,0.1075268864
3847,0.1075268864
3848,0.0977517032
3849,0.0879765415
3850,0.0782013654
3851,0.0782013654
3852,0.0879765415
3853,0.0879765415
3854,0.0879765415
3855,0.0879765415
3856,0.1075268864
3857,0.1075268864
3858,0.1075268864
3859,0.1173020482
3860,0.1173020482
3861,0.1173020482
3862,0.1270772218
3863,0.1368523955
3864,0.1368523955
3865,0.1368523955
3866,0.1466275596
3867,0.1466275596
3868,0.1857282543
3869,0.2248289346
3870,0.2346040964
3871,0.2150537729
3872,0.2150537729
3873,0.1955034160
3874,0.2052785873
3875,0.1857282543
3876,0.1759530782
3877,0.1759530782
3878,0.1759530782
3879,0.1759530782
3880,0.1955034160
3881,0.1857282543
3882,0.2248289346
3883,0.2248289346
3884,0.2443792819
3885,0.2737047910
3886,0.2834799575
3887,0.2737047910
3888,0.3225806236
3889,0.4203323364
3890,0.7722384929
3891,0.8406646728
3892,0.7820136547
3893,0.7820136547
3894,0.7233626842
3895,0.8699902534
3896,0.7429130077
3897,0.7135874748
3898,0.6256109237
3899,0.5278592109
3900,0.4594330310
3901,0.5767350673
3902,0.5083088874
3903,0.4692081928
3904,0.5083088874
3905,0.4301075458
3906,0.3812316703
3907,0.3421309947
3908,0.3030303001
3909,0.2834799575
3910,0.2834799575
3911,0.2639296054
3912,0.2541544437
3913,0.2346040964
3914,0.1955034160
3915,0.1759530782
3916,0.1955034160
3917,0.1857282543
3918,0.1661779165
3919,0.1661779165
3920,0.1955034160
3921,0.2052785873
3922,0.2346040964
3923,0.2541544437
3924,0.2346040964
3925,0.2052785873
3926,0.1759530782
3927,0.1661779165
3928,0.1564027309
3929,0.1564027309
3930,0.1759530782
3931,0.1759530782
3932,0.1661779165
3933,0.1466275596
3934,0.1270772218
3935,0.1173020482
3936,0.1368523955
3937,0.1270772218
3938,0.1270772218
3939,0.1173020482
3940,0.1173020482
3941,0.1075268864
3942,0.1075268864
3943,0.0879765415
3944,0.0782013654
3945,0.0879765415
3946,0.0782013654
3947,0.0782013654
3948,0.0684261989
3949,0.0684261989
3950,0.0684261989
3951,0.0684261989
3952,0.0684261989
3953,0.0782013654
3954,0.0782013654
3955,0.0782013654
3956,0.0684261989
3957,0.0782013654
3958,0.0782013654
3959,0.0782013654
3960,0.0782013654
3961,0.0684261989
3962,0.0684261989
3963,0.0586510229
3964,0.0586510229
3965,0.0488758516
3966,0.0488758516
3967,0.0586510229
3968,0.0488758516
3969,0.0488758516
3970,0.0586510229
3971,0.0586510229
3972,0.0684261989
3973,0.0586510229
3974,0.0586510229
3975,0.0586510229
3976,0.0488758516
3977,0.0488758516
3978,0.0488758516
3979,0.0488758516
3980,0.0488758516
3981,0.0391006832
3982,0.0488758516
3983,0.0488758516
3984,0.0586510229
3985,0.0488758516
3986,0.0586510229
3987,0.0586510229
3988,0.0684261989
3989,0.0684261989
3990,0.0684261989
3991,0.0684261989
3992,0.0684261989
3993,0.0586510229
3994,0.0684261989
3995,0.0684261989
3996,0.0586510229
3997,0.0684261989
3998,0.0684261989
3999,0.0782013654
4000,0.0977517032
4001,0.8895405769
4002,0.6940371513
4003,0.5571847438
4004,0.4496578693
4005,0.3519061565
4006,0.2834799575
4007,0.2248289346
4008,0.1857282543
4009,0.1466275596
4010,0.1270772218
4011,0.1075268864
4012,0.0879765415
4013,0.0879765415
4014,0.0684261989
4015,0.0586510229
4016,0.0586510229
4017,0.0488758516
4018,0.0391006832
4019,0.0391006832
4020,0.0488758516
4021,0.0488758516
4022,0.0391006832
4023,0.0391006832
4024,0.0293255119
4025,0.0293255119
4026,0.0293255119
4027,0.0293255119
4028,0.0293255119
4029,0.0488758516
4030,0.0586510229
4031,0.0684261989
4032,0.0586510229
4033,0.0684261989
4034,0.0586510229
4035,0.0391006832
4036,0.0391006832
4037,0.0293255119
4038,0.0293255119
4039,0.0195503416
4040,0.0293255119
4041,0.0391006832
4042,0.0293255119
4043,0.0293255119
4044,0.0293255119
4045,0.0293255119
4046,0.0488758516
4047,0.0684261989
4048,0.0879765415
4049,0.0977517032
4050,0.0977517032
4051,0.0782013654
4052,0.0684261989
4053,0.0586510229
4054,0.0782013654
4055,0.1075268864
4056,0.0977517032
4057,0.0782013654
4058,0.0684261989
4059,0.0488758516
4060,0.0488758516
4061,0.0488758516
4062,0.0488758516
4063,0.0684261989
4064,0.0879765415
4065,0.0879765415
4066,0.0782013654
4067,0.0782013654
4068,0.0879765415
4069,0.0977517032
4070,0.1075268864
4071,0.1368523955
4072,0.1564027309
4073,0.1564027309
4074,0.1857282543
4075,0.1955034160
4076,0.1759530782
4077,0.1661779165
4078,0.1564027309
4079,0.1661779165
4080,0.1661779165
4081,0.1759530782
4082,0.1564027309
4083,0.1368523955
4084,0.1368523955
4085,0.1368523955
4086,0.1368523955
4087,0.1368523955
4088,0.1466275596
4089,0.2052785873
4090,0.2248289346
4091,0.2443792819
4092,0.2346040964
4093,0.2541544437
4094,0.2248289346
4095,0.2150537729
4096,0.2150537729
4097,0.1955034160
4098,0.1759530782
4099,0.1759530782
4100,0.1857282543
4101,0.1564027309
4102,0.1466275596
4103,0.1466275596
4104,0.1564027309
4105,0.1661779165
4106,0.1564027309
4107,0.1466275596
4108,0.1564027309
4109,0.1564027309
4110,0.1368523955
4111,0.1564027309
4112,0.1564027309
4113,0.2932551193
4114,0.3812316703
4115,0.3910068321
4116,0.3421309947
4117,0.4105571746
4118,0.4105571746
4119,0.3714565038
4120,0.3323558330
4121,0.2932551193
4122,0.2932551193
4123,0.2834799575
4124,0.2541544437
4125,0.2150537729
4126,0.1955034160
4127,0.1661779165
4128,0.1759530782
4129,0.1857282543
4130,0.1661779165
4131,0.1466275596
4132,0.1466275596
4133,0.1564027309
4134,0.1466275596
4135,0.1368523955
4136,0.1173020482
4137,0.1075268864
4138,0.1270772218
4139,0.1466275596
4140,0.1564027309
4141,0.1466275596
4142,0.1368523955
4143,0.1173020482
4144,0.1075268864
4145,0.0977517032
4146,0.0977517032
4147,0.0879765415
4148,0.0782013654
4149,0.0684261989
4150,0.0977517032
4151,0.1270772218
4152,0.1173020482
4153,0.1075268864
4154,0.1270772218
4155,0.1661779165
4156,0.1661779165
4157,0.1661779165
4158,0.1270772218
4159,0.1270772218
4160,0.1173020482
4161,0.0977517032
4162,0.0879765415
4163,0.0879765415
4164,0.0879765415
4165,0.0782013654
4166,0.0586510229
4167,0.0684261989
4168,0.0684261989
4169,0.0586510229
4170,0.0684261989
4171,0.0488758516
4172,0.0586510229
4173,0.0488758516
4174,0.0586510229
4175,0.0586510229
4176,0.0586510229
4177,0.0586510229
4178,0.0684261989
4179,0.0782013654
4180,0.0684261989
4181,0.0684261989
4182,0.0879765415
4183,0.1173020482
4184,0.1466275596
4185,0.1564027309
4186,0.1368523955
4187,0.1173020482
4188,0.1075268864
4189,0.1173020482
4190,0.1368523955
4191,0.1564027309
4192,0.1564027309
4193,0.1466275596
4194,0.1270772218
4195,0.1075268864
4196,0.0879765415
4197,0.0782013654
4198,0.0782013654
4199,0.0782013654
4200,0.0782013654
4201,0.0684261989
4202,0.0586510229
4203,0.0586510229
4204,0.0684261989
4205,0.0879765415
4206,0.0977517032
4207,0.0977517032
4208,0.0879765415
4209,0.0684261989
4210,0.0586510229
4211,0.0586510229
4212,0.0684261989
4213,0.0586510229
4214,0.0586510229
4215,0.0488758516
4216,0.0488758516
4217,0.0391006832
4218,0.0488758516
4219,0.0586510229
4220,0.0586510229
4221,0.0586510229
4222,0.0488758516
4223,0.0488758516
4224,0.0488758516
4225,0.0586510229
4226,0.0782013654
4227,0.0977517032
4228,0.0977517032
4229,0.0977517032
4230,0.0782013654
4231,0.0879765415
4232,0.0782013654
4233,0.0684261989
4234,0.0586510229
4235,0.0684261989
4236,0.0684261989
4237,0.0586510229
4238,0.0586510229
4239,0.0586510229
4240,0.0586510229
4241,0.0684261989
4242,0.0684261989
4243,0.0684261989
4244,0.0782013654
4245,0.0586510229
4246,0.0586510229
4247,0.0586510229
4248,0.0684261989
4249,0.0879765415
4250,0.1075268864
4251,0.1173020482
4252,0.1173020482
4253,0.1075268864
4254,0.0879765415
4255,0.0782013654
4256,0.0684261989
4257,0.0586510229
4258,0.0586510229
4259,0.0586510229
4260,0.0586510229
4261,0.0391006832
4262,0.0391006832
4263,0.0391006832
4264,0.0586510229
4265,0.0879765415
4266,0.0782013654
4267,0.0586510229
4268,0.0586510229
4269,0.0586510229
4270,0.0488758516
4271,0.0488758516
4272,0.0391006832
4273,0.0293255119
4274,0.0293255119
4275,0.0195503416
4276,0.0195503416
4277,0.0097751703
4278,0.0097751703
4279,0.0195503416
4280,0.0488758516
4281,0.0586510229
4282,0.0586510229
4283,0.0586510229
4284,0.0684261989
4285,0.0684261989
4286,0.1075268864
4287,0.1857282543
4288,0.2248289346
4289,0.2346040964
4290,0.2248289346
4291,0.2248289346
4292,0.2150537729
4293,0.2052785873
4294,0.1857282543
4295,0.1564027309
4296,0.1368523955
4297,0.1270772218
4298,0.1173020482
4299,0.0977517032
4300,0.0977517032
4301,0.0879765415
4302,0.0977517032
4303,0.0879765415
4304,0.0977517032
4305,0.1173020482
4306,0.1564027309
4307,0.2052785873
4308,0.2541544437
4309,0.3128054618
4310,0.2932551193
4311,0.2834799575
4312,0.2346040964
4313,0.2737047910
4314,0.3128054618
4315,0.2737047910
4316,0.2541544437
4317,0.2346040964
4318,0.2150537729
4319,0.2052785873
4320,0.2346040964
4321,0.1955034160
4322,0.1759530782
4323,0.1564027309
4324,0.1466275596
4325,0.1466275596
4326,0.1564027309
4327,0.1857282543
4328,0.2150537729
4329,0.2443792819
4330,0.2248289346
4331,0.2346040964
4332,0.2541544437
4333,0.2443792819
4334,0.2052785873
4335,0.2052785873
4336,0.2052785873
4337,0.2052785873
4338,0.1759530782
4339,0.1466275596
4340,0.1466275596
4341,0.1270772218
4342,0.1173020482
4343,0.1270772218
4344,0.1466275596
4345,0.1759530782
4346,0.2443792819
4347,0.3030303001
4348,0.3225806236
4349,0.3030303001
4350,0.3225806236
4351,0.2932551193
4352,0.3030303001
4353,0.3128054618
4354,0.3225806236
4355,0.3030303001
4356,0.3128054618
4357,0.3030303001
4358,0.2834799575
4359,0.2737047910
4360,0.2443792819
4361,0.2248289346
4362,0.1955034160
4363,0.1955034160
4364,0.1759530782
4365,0.1759530782
4366,0.1661779165
4367,0.1661779165
4368,0.1661779165
4369,0.1661779165
4370,0.1564027309
4371,0.1270772218
4372,0.1173020482
4373,0.1173020482
4374,0.1075268864
4375,0.0977517032
4376,0.0879765415
4377,0.0782013654
4378,0.0782013654
4379,0.0684261989
4380,0.0586510229
4381,0.0488758516
4382,0.0586510229
4383,0.0488758516
4384,0.0488758516
4385,0.0391006832
4386,0.0391006832
4387,0.0391006832
4388,0.0293255119
4389,0.0293255119
4390,0.0195503416
4391,0.0293255119
4392,0.0293255119
4393,0.0488758516
4394,0.0586510229
4395,0.0488758516
4396,0.0586510229
4397,0.0586510229
4398,0.0782013654
4399,0.1075268864
4400,0.0977517032
4401,0.0879765415
4402,0.0782013654
4403,0.0684261989
4404,0.0684261989
4405,0.0586510229
4406,0.0488758516
4407,0.0488758516
4408,0.0488758516
4409,0.0684261989
4410,0.0684261989
4411,0.0782013654
4412,0.0684261989
4413,0.0586510229
4414,0.0586510229
4415,0.0586510229
4416,0.0488758516
4417,0.0586510229
4418,0.0879765415
4419,0.0977517032
4420,0.0977517032
4421,0.0782013654
4422,0.0684261989
4423,0.0684261989
4424,0.0684261989
4425,0.0586510229
4426,0.0586510229
4427,0.0488758516
4428,0.0391006832
4429,0.0391006832
4430,0.0391006832
4431,0.0391006832
4432,0.0391006832
4433,0.0293255119
4434,0.0293255119
4435,0.0195503416
4436,0.0293255119
4437,0.0293255119
4438,0.0293255119
4439,0.0293255119
4440,0.0293255119
4441,0.0293255119
4442,0.0391006832
4443,0.0293255119
4444,0.0391006832
4445,0.0488758516
4446,0.0586510229
4447,0.0586510229
4448,0.0586510229
4449,0.0586510229
4450,0.0488758516
4451,0.0488758516
4452,0.0488758516
4453,0.0586510229
4454,0.0586510229
4455,0.0488758516
4456,0.0586510229
4457,0.0488758516
4458,0.0488758516
4459,0.0488758516
4460,0.0684261989
4461,0.0879765415
4462,0.1075268864
4463,0.1075268864
4464,0.0977517032
4465,0.0977517032
4466,0.0879765415
4467,0.0684261989
4468,0.0782013654
4469,0.0684261989
4470,0.0879765415
4471,0.0782013654
4472,0.0684261989
4473,0.0488758516
4474,0.0586510229
4475,0.0586510229
4476,0.0488758516
4477,0.0488758516
4478,0.0488758516
4479,0.0488758516
4480,0.0488758516
4481,0.0488758516
4482,0.0391006832
4483,0.0391006832
4484,0.0586510229
4485,0.0586510229
4486,0.0586510229
4487,0.0488758516
4488,0.0586510229
4489,0.0586510229
4490,0.0977517032
4491,0.0977517032
4492,0.0879765415
4493,0.0879765415
4494,0.0782013654
4495,0.0782013654
4496,0.0782013654
4497,0.0879765415
4498,0.0782013654
4499,0.0782013654
4500,0.0782013654
4501,0.0782013654
4502,0.0782013654
4503,0.0782013654
4504,0.0782013654
4505,0.0684261989
4506,0.0684261989
4507,0.0782013654
4508,0.0977517032
4509,0.0879765415
4510,0.0977517032
4511,0.1075268864
4512,0.1075268864
4513,0.0879765415
4514,0.0782013654
4515,0.0684261989
4516,0.0684261989
4517,0.0782013654
4518,0.0684261989
4519,0.0586510229
4520,0.0488758516
4521,0.0391006832
4522,0.0391006832
4523,0.0488758516
4524,0.0391006832
4525,0.0391006832
4526,0.0293255119
4527,0.0293255119
4528,0.0391006832
4529,0.0488758516
4530,0.0586510229
4531,0.0782013654
4532,0.0977517032
4533,0.1075268864
4534,0.1173020482
4535,0.1173020482
4536,0.1173020482
4537,0.1075268864
4538,0.1075268864
4539,0.1173020482
4540,0.1661779165
4541,0.1955034160
4542,0.2150537729
4543,0.2150537729
4544,0.2346040964
4545,0.2248289346
4546,0.2052785873
4547,0.1759530782
4548,0.1857282543
4549,0.1759530782
4550,0.1661779165
4551,0.1661779165
4552,0.1759530782
4553,0.1661779165
4554,0.1759530782
4555,0.1759530782
4556,0.2052785873
4557,0.2052785873
4558,0.2052785873
4559,0.2150537729
4560,0.2150537729
4561,0.2248289346
4562,0.2248289346
4563,0.2541544437
4564,0.2932551193
4565,0.2639296054
4566,0.2639296054
4567,0.2541544437
4568,0.2248289346
4569,0.1955034160
4570,0.2052785873
4571,0.2150537729
4572,0.2052785873
4573,0.2052785873
4574,0.2248289346
4575,0.3128054618
4576,0.3910068321
4577,0.4007820129
4578,0.4594330310
4579,0.4398827075
4580,0.4692081928
4581,0.4692081928
4582,0.4789833545
4583,0.5278592109
4584,0.5180840492
4585,0.5474095821
4586,0.4594330310
4587,0.3910068321
4588,0.3323558330
4589,0.3812316703
4590,0.3616813421
4591,0.3421309947
4592,0.3323558330
4593,0.2834799575
4594,0.2737047910
4595,0.2346040964
4596,0.2443792819
4597,0.2541544437
4598,0.2150537729
4599,0.1955034160
4600,0.1661779165
4601,0.1466275596
4602,0.1661779165
4603,0.1661779165
4604,0.1564027309
4605,0.1466275596
4606,0.1270772218
4607,0.1173020482
4608,0.1075268864
4609,0.0977517032
4610,0.0879765415
4611,0.0684261989
4612,0.0684261989
4613,0.0586510229
4614,0.0586510229
4615,0.0488758516
4616,0.0488758516
4617,0.0684261989
4618,0.0879765415
4619,0.0879765415
4620,0.0684261989
4621,0.0684261989
4622,0.0684261989
4623,0.0586510229
4624,0.0488758516
4625,0.0488758516
4626,0.0586510229
4627,0.0586510229
4628,0.0488758516
4629,0.0586510229
4630,0.0488758516
4631,0.0488758516
4632,0.0488758516
4633,0.0488758516
4634,0.0488758516
4635,0.0391006832
4636,0.0488758516
4637,0.0684261989
4638,0.0879765415
4639,0.0879765415
4640,0.1075268864
4641,0.1270772218
4642,0.1368523955
4643,0.1173020482
4644,0.0977517032
4645,0.0879765415
4646,0.0879765415
4647,0.0684261989
4648,0.0586510229
4649,0.0488758516
4650,0.0488758516
4651,0.0391006832
4652,0.0391006832
4653,0.0488758516
4654,0.0488758516
4655,0.0782013654
4656,0.1368523955
4657,0.1270772218
4658,0.1368523955
4659,0.1661779165
4660,0.1661779165
4661,0.1466275596
4662,0.1466275596
4663,0.1368523955
4664,0.1270772218
4665,0.1173020482
4666,0.1075268864
4667,0.1075268864
4668,0.0977517032
4669,0.0782013654
4670,0.0782013654
4671,0.0782013654
4672,0.0782013654
4673,0.0782013654
4674,0.0879765415
4675,0.0782013654
4676,0.0782013654
4677,0.0586510229
4678,0.0586510229
4679,0.0586510229
4680,0.0488758516
4681,0.0586510229
4682,0.0684261989
4683,0.0684261989
4684,0.0586510229
4685,0.0586510229
4686,0.0488758516
4687,0.0391006832
4688,0.0488758516
4689,0.0488758516
4690,0.0977517032
4691,0.1466275596
4692,0.1955034160
4693,0.1955034160
4694,0.1759530782
4695,0.1661779165
4696,0.1368523955
4697,0.1270772218
4698,0.1368523955
4699,0.1368523955
4700,0.1270772218
4701,0.1075268864
4702,0.0879765415
4703,0.0782013654
4704,0.0879765415
4705,0.0879765415
4706,0.0977517032
4707,0.0977517032
4708,0.1173020482
4709,0.1270772218
4710,0.1270772218
4711,0.1173020482
4712,0.0977517032
4713,0.0977517032
4714,0.0879765415
4715,0.0782013654
4716,0.0684261989
4717,0.0684261989
4718,0.0782013654
4719,0.0782013654
4720,0.0684261989
4721,0.0586510229
4722,0.0488758516
4723,0.0488758516
4724,0.0488758516
4725,0.0684261989
4726,0.0684261989
4727,0.0586510229
4728,0.0586510229
4729,0.0488758516
4730,0.0391006832
4731,0.0391006832
4732,0.0391006832
4733,0.0391006832
4734,0.0293255119
4735,0.0293255119
4736,0.0293255119
4737,0.0293255119
4738,0.0488758516
4739,0.0391006832
4740,0.0293255119
4741,0.0293255119
4742,0.0293255119
4743,0.0391006832
4744,0.0488758516
4745,0.0586510229
4746,0.0782013654
4747,0.0782013654
4748,0.0782013654
4749,0.0684261989
4750,0.0586510229
4751,0.0586510229
4752,0.0488758516
4753,0.0488758516
4754,0.0488758516
4755,0.0488758516
4756,0.0488758516
4757,0.0488758516
4758,0.0586510229
4759,0.0684261989
4760,0.0684261989
4761,0.0879765415
4762,0.1075268864
4763,0.1173020482
4764,0.1173020482
4765,0.1270772218
4766,0.1173020482
4767,0.1173020482
4768,0.1270772218
4769,0.1368523955
4770,0.1270772218
4771,0.1466275596
4772,0.1955034160
4773,0.1955034160
4774,0.1661779165
4775,0.1759530782
4776,0.1857282543
4777,0.1759530782
4778,0.1857282543
4779,0.1661779165
4780,0.2052785873
4781,0.2052785873
4782,0.1857282543
4783,0.1857282543
4784,0.1759530782
4785,0.1857282543
4786,0.2052785873
4787,0.2346040964
4788,0.2346040964
4789,0.2150537729
4790,0.2639296054
4791,0.2541544437
4792,0.2541544437
4793,0.2541544437
4794,0.2443792819
4795,0.2346040964
4796,0.1955034160
4797,0.2052785873
4798,0.3812316703
4799,0.4496578693
4800,0.4301075458
4801,0.5376344203
4802,0.6060606002
4803,0.5474095821
4804,0.5962854385
4805,0.5571847438
4806,0.6842619895
4807,0.6256109237
4808,0.5571847438
4809,0.4789833545
4810,0.3812316703
4811,0.3323558330
4812,0.2834799575
4813,0.2834799575
4814,0.2737047910
4815,0.2248289346
4816,0.1955034160
4817,0.1564027309
4818,0.1466275596
4819,0.1564027309
4820,0.1564027309
4821,0.1368523955
4822,0.1173020482
4823,0.0977517032
4824,0.1173020482
4825,0.1564027309
4826,0.1368523955
4827,0.1270772218
4828,0.1270772218
4829,0.1173020482
4830,0.1270772218
4831,0.1270772218
4832,0.1173020482
4833,0.1075268864
4834,0.1368523955
4835,0.1564027309
4836,0.1564027309
4837,0.1466275596
4838,0.1173020482
4839,0.0977517032
4840,0.1075268864
4841,0.1270772218
4842,0.1270772218
4843,0.1075268864
4844,0.0977517032
4845,0.0879765415
4846,0.0782013654
4847,0.0684261989
4848,0.0586510229
4849,0.0684261989
4850,0.0782013654
4851,0.0782013654
4852,0.0782013654
4853,0.0977517032
4854,0.1075268864
4855,0.0879765415
4856,0.0782013654
4857,0.0684261989
4858,0.0586510229
4859,0.0586510229
4860,0.0488758516
4861,0.0488758516
4862,0.0391006832
4863,0.0488758516
4864,0.0782013654
4865,0.1270772218
4866,0.1955034160
4867,0.2150537729
4868,0.1857282543
4869,0.1661779165
4870,0.1564027309
4871,0.1564027309
4872,0.1564027309
4873,0.1564027309
4874,0.1661779165
4875,0.1857282543
4876,0.1857282543
4877,0.1564027309
4878,0.1368523955
4879,0.1173020482
4880,0.0977517032
4881,0.0879765415
4882,0.0782013654
4883,0.0684261989
4884,0.0586510229
4885,0.0488758516
4886,0.0391006832
4887,0.0293255119
4888,0.0293255119
4889,0.0293255119
4890,0.0293255119
4891,0.0293255119
4892,0.0195503416
4893,0.0195503416
4894,0.0195503416
4895,0.0195503416
4896,0.0195503416
4897,0.0195503416
4898,0.0293255119
4899,0.0293255119
4900,0.0391006832
4901,0.0488758516
4902,0.0391006832
4903,0.0488758516
4904,0.0391006832
4905,0.0391006832
4906,0.0391006832
4907,0.0488758516
4908,0.0391006832
4909,0.0488758516
4910,0.0488758516
4911,0.0488758516
4912,0.0488758516
4913,0.0391006832
4914,0.0391006832
4915,0.0293255119
4916,0.0293255119
4917,0.0195503416
4918,0.0195503416
4919,0.0195503416
4920,0.0195503416
4921,0.0195503416
4922,0.0195503416
4923,0.0195503416
4924,0.0195503416
4925,0.0293255119
4926,0.0293255119
4927,0.0293255119
4928,0.0293255119
4929,0.0195503416
4930,0.0293255119
4931,0.0195503416
4932,0.0391006832
4933,0.0391006832
4934,0.0391006832
4935,0.0391006832
4936,0.0293255119
4937,0.0293255119
4938,0.0391006832
4939,0.0293255119
4940,0.0488758516
4941,0.0488758516
4942,0.0488758516
4943,0.0391006832
4944,0.0391006832
4945,0.0293255119
4946,0.0293255119
4947,0.0391006832
4948,0.0488758516
4949,0.0391006832
4950,0.0293255119
4951,0.0293255119
4952,0.0293255119
4953,0.0195503416
4954,0.0195503416
4955,0.0195503416
4956,0.0195503416
4957,0.0293255119
4958,0.0391006832
4959,0.0586510229
4960,0.0586510229
4961,0.0488758516
4962,0.0586510229
4963,0.0586510229
4964,0.0586510229
4965,0.0586510229
4966,0.0488758516
4967,0.0488758516
4968,0.0391006832
4969,0.0391006832
4970,0.0391006832
4971,0.0586510229
4972,0.0782013654
4973,0.0879765415
4974,0.0879765415
4975,0.0879765415
4976,0.0586510229
4977,0.0586510229
4978,0.0488758516
4979,0.0488758516
4980,0.0684261989
4981,0.0879765415
4982,0.0782013654
4983,0.0782013654
4984,0.0684261989
4985,0.1075268864
4986,0.1466275596
4987,0.1466275596
4988,0.1661779165
4989,0.1857282543
4990,0.2639296054
4991,0.3421309947
4992,0.3323558330
4993,0.2932551193
4994,0.2346040964
4995,0.1955034160
4996,0.1564027309
4997,0.1368523955
4998,0.1270772218
4999,0.1270772218
5000,0.1564027309
5001,1.3098728656
5002,1.0654937028
5003,0.8797654151
5004,0.7135874748
5005,0.6060606002
5006,0.4887585639
5007,0.4007820129
5008,0.3519061565
5009,0.3030303001
5010,0.2639296054
5011,0.2346040964
5012,0.2346040964
5013,0.2150537729
5014,0.1857282543
5015,0.1759530782
5016,0.1857282543
5017,0.1955034160
5018,0.1759530782
5019,0.1857282543
5020,0.2150537729
5021,0.1955034160
5022,0.1857282543
5023,0.2346040964
5024,0.2248289346
5025,0.2541544437
5026,0.2443792819
5027,0.2541544437
5028,0.2443792819
5029,0.2541544437
5030,0.2639296054
5031,0.2541544437
5032,0.3030303001
5033,0.2737047910
5034,0.2443792819
5035,0.2346040964
5036,0.2541544437
5037,0.2443792819
5038,0.2052785873
5039,0.1955034160
5040,0.2346040964
5041,0.2443792819
5042,0.2639296054
5043,0.2737047910
5044,0.2737047910
5045,0.2541544437
5046,0.2150537729
5047,0.2150537729
5048,0.2639296054
5049,0.2639296054
5050,0.4398827075
5051,0.5571847438
5052,0.5767350673
5053,0.5180840492
5054,0.5083088874
5055,0.4398827075
5056,0.4203323364
5057,0.3812316703
5058,0.3714565038
5059,0.3421309947
5060,0.2932551193
5061,0.2443792819
5062,0.1955034160
5063,0.1955034160
5064,0.1955034160
5065,0.1857282543
5066,0.1466275596
5067,0.1270772218
5068,0.1075268864
5069,0.0879765415
5070,0.0782013654
5071,0.0684261989
5072,0.0488758516
5073,0.0488758516
5074,0.0293255119
5075,0.0293255119
5076,0.0391006832
5077,0.0293255119
5078,0.0391006832
5079,0.0782013654
5080,0.0782013654
5081,0.1075268864
5082,0.1661779165
5083,0.1466275596
5084,0.1368523955
5085,0.1270772218
5086,0.1173020482
5087,0.0977517032
5088,0.1368523955
5089,0.1759530782
5090,0.1661779165
5091,0.1661779165
5092,0.1564027309
5093,0.1368523955
5094,0.1075268864
5095,0.0782013654
5096,0.0684261989
5097,0.0684261989
5098,0.0488758516
5099,0.0391006832
5100,0.0488758516
5101,0.0488758516
5102,0.0488758516
5103,0.0684261989
5104,0.1075268864
5105,0.1173020482
5106,0.1270772218
5107,0.1075268864
5108,0.1075268864
5109,0.0977517032
5110,0.1173020482
5111,0.1368523955
5112,0.1759530782
5113,0.2052785873
5114,0.2150537729
5115,0.2150537729
5116,0.1857282543
5117,0.1564027309
5118,0.1564027309
5119,0.1564027309
5120,0.1661779165
5121,0.1564027309
5122,0.1368523955
5123,0.1173020482
5124,0.0977517032
5125,0.0977517032
5126,0.0977517032
5127,0.0977517032
5128,0.0879765415
5129,0.0684261989
5130,0.0684261989
5131,0.0782013654
5132,0.0782013654
5133,0.0782013654
5134,0.0977517032
5135,0.0977517032
5136,0.0879765415
5137,0.0684261989
5138,0.0586510229
5139,0.0488758516
5140,0.0586510229
5141,0.0684261989
5142,0.0782013654
5143,0.0879765415
5144,0.0782013654
5145,0.0684261989
5146,0.0586510229
5147,0.0586510229
5148,0.0488758516
5149,0.0684261989
5150,0.0684261989
5151,0.0586510229
5152,0.0586510229
5153,0.0488758516
5154,0.0488758516
5155,0.0586510229
5156,0.0586510229
5157,0.0488758516
5158,0.0488758516
5159,0.0488758516
5160,0.0488758516
5161,0.0488758516
5162,0.0488758516
5163,0.0391006832
5164,0.0391006832
5165,0.0293255119
5166,0.0391006832
5167,0.0293255119
5168,0.0293255119
5169,0.0293255119
5170,0.0293255119
5171,0.0391006832
5172,0.0391006832
5173,0.0391006832
5174,0.0586510229
5175,0.0684261989
5176,0.0879765415
5177,0.1173020482
5178,0.1466275596
5179,0.1564027309
5180,0.1466275596
5181,0.1173020482
5182,0.1075268864
5183,0.0977517032
5184,0.1564027309
5185,0.1564027309
5186,0.1857282543
5187,0.1661779165
5188,0.1466275596
5189,0.1270772218
5190,0.1368523955
5191,0.1564027309
5192,0.1759530782
5193,0.1759530782
5194,0.1466275596
5195,0.1270772218
5196,0.1173020482
5197,0.0977517032
5198,0.0977517032
5199,0.1173020482
5200,0.1368523955
5201,0.1270772218
5202,0.1173020482
5203,0.1173020482
5204,0.1173020482
5205,0.1075268864
5206,0.0977517032
5207,0.0977517032
5208,0.0782013654
5209,0.0684261989
5210,0.0586510229
5211,0.0684261989
5212,0.0586510229
5213,0.0586510229
5214,0.0391006832
5215,0.0488758516
5216,0.0488758516
5217,0.0391006832
5218,0.0488758516
5219,0.0488758516
5220,0.0391006832
5221,0.0293255119
5222,0.0391006832
5223,0.0586510229
5224,0.0586510229
5225,0.0684261989
5226,0.0684261989
5227,0.0684261989
5228,0.0879765415
5229,0.0684261989
5230,0.0684261989
5231,0.0586510229
5232,0.0684261989
5233,0.0684261989
5234,0.0782013654
5235,0.0782013654
5236,0.0977517032
5237,0.0977517032
5238,0.1466275596
5239,0.1661779165
5240,0.1661779165
5241,0.1661779165
5242,0.1759530782
5243,0.1466275596
5244,0.1564027309
5245,0.1759530782
5246,0.1759530782
5247,0.1857282543
5248,0.1759530782
5249,0.1857282543
5250,0.1759530782
5251,0.1955034160
5252,0.1857282543
5253,0.1857282543
5254,0.1955034160
5255,0.2052785873
5256,0.2346040964
5257,0.2346040964
5258,0.2052785873
5259,0.1857282543
5260,0.1857282543
5261,0.1955034160
5262,0.2052785873
5263,0.1955034160
5264,0.2639296054
5265,0.2737047910
5266,0.2932551193
5267,0.2443792819
5268,0.2834799575
5269,0.4105571746
5270,0.4985337257
5271,0.5083088874
5272,0.4985337257
5273,0.4105571746
5274,0.3812316703
5275,0.3421309947
5276,0.2932551193
5277,0.3030303001
5278,0.4203323364
5279,0.5376344203
5280,0.5278592109
5281,0.5083088874
5282,0.6647116661
5283,0.5669599056
5284,0.6158357620
5285,0.7429130077
5286,0.8308895111
5287,0.7917888641
5288,0.6940371513
5289,0.5767350673
5290,0.5474095821
5291,0.5474095821
5292,0.5376344203
5293,0.4789833545
5294,0.3910068321
5295,0.3128054618
5296,0.2737047910
5297,0.2541544437
5298,0.2541544437
5299,0.2443792819
5300,0.2052785873
5301,0.1955034160
5302,0.1857282543
5303,0.1955034160
5304,0.1759530782
5305,0.1564027309
5306,0.1368523955
5307,0.1270772218
5308,0.1075268864
5309,0.0879765415
5310,0.0782013654
5311,0.0684261989
5312,0.0488758516
5313,0.0586510229
5314,0.0782013654
5315,0.0782013654
5316,0.0684261989
5317,0.0684261989
5318,0.0977517032
5319,0.0879765415
5320,0.0782013654
5321,0.0782013654
5322,0.0782013654
5323,0.0782013654
5324,0.0977517032
5325,0.0879765415
5326,0.0782013654
5327,0.0684261989
5328,0.0782013654
5329,0.0879765415
5330,0.1075268864
5331,0.1173020482
5332,0.0977517032
5333,0.0879765415
5334,0.0684261989
5335,0.0684261989
5336,0.0782013654
5337,0.1466275596
5338,0.1955034160
5339,0.1955034160
5340,0.2052785873
5341,0.2248289346
5342,0.2150537729
5343,0.1857282543
5344,0.1564027309
5345,0.1368523955
5346,0.1173020482
5347,0.0977517032
5348,0.0782013654
5349,0.0782013654
5350,0.0977517032
5351,0.1075268864
5352,0.0977517032
5353,0.0977517032
5354,0.1075268864
5355,0.0977517032
5356,0.0977517032
5357,0.0782013654
5358,0.0684261989
5359,0.0586510229
5360,0.0684261989
5361,0.0684261989
5362,0.0684261989
5363,0.0879765415
5364,0.0879765415
5365,0.0782013654
5366,0.0684261989
5367,0.0879765415
5368,0.0879765415
5369,0.0879765415
5370,0.0782013654
5371,0.0684261989
5372,0.0586510229
5373,0.0879765415
5374,0.0782013654
5375,0.0684261989
5376,0.0782013654
5377,0.0879765415
5378,0.1075268864
5379,0.1564027309
5380,0.1661779165
5381,0.1759530782
5382,0.1564027309
5383,0.1173020482
5384,0.1075268864
5385,0.0977517032
5386,0.0977517032
5387,0.0879765415
5388,0.1075268864
5389,0.0977517032
5390,0.0977517032
5391,0.1173020482
5392,0.1368523955
5393,0.1466275596
5394,0.1759530782
5395,0.1661779165
5396,0.1857282543
5397,0.1759530782
5398,0.1368523955
5399,0.1270772218
5400,0.1173020482
5401,0.1173020482
5402,0.0977517032
5403,0.0879765415
5404,0.0782013654
5405,0.0684261989
5406,0.0782013654
5407,0.0684261989
5408,0.0684261989
5409,0.0684261989
5410,0.0586510229
5411,0.0977517032
5412,0.1075268864
5413,0.0977517032
5414,0.0977517032
5415,0.1270772218
5416,0.1368523955
5417,0.1564027309
5418,0.1564027309
5419,0.1368523955
5420,0.1270772218
5421,0.1075268864
5422,0.0879765415
5423,0.1075268864
5424,0.1173020482
5425,0.1466275596
5426,0.1661779165
5427,0.1955034160
5428,0.2248289346
5429,0.2248289346
5430,0.1759530782
5431,0.1466275596
5432,0.1368523955
5433,0.1759530782
5434,0.1661779165
5435,0.1368523955
5436,0.1173020482
5437,0.1075268864
5438,0.1075268864
5439,0.0977517032
5440,0.1075268864
5441,0.1075268864
5442,0.0879765415
5443,0.0977517032
5444,0.1075268864
5445,0.1075268864
5446,0.1173020482
5447,0.0977517032
5448,0.0879765415
5449,0.0782013654
5450,0.0684261989
5451,0.0684261989
5452,0.0782013654
5453,0.1075268864
5454,0.1075268864
5455,0.1075268864
5456,0.1075268864
5457,0.0977517032
5458,0.1173020482
5459,0.1173020482
5460,0.1368523955
5461,0.1466275596
5462,0.1466275596
5463,0.1466275596
5464,0.1466275596
5465,0.1564027309
5466,0.1466275596
5467,0.1466275596
5468,0.1466275596
5469,0.1661779165
5470,0.1857282543
5471,0.1857282543
5472,0.2150537729
5473,0.2346040964
5474,0.2346040964
5475,0.2443792819
5476,0.2248289346
5477,0.2052785873
5478,0.1759530782
5479,0.1661779165
5480,0.1759530782
5481,0.1759530782
5482,0.1857282543
5483,0.1955034160
5484,0.2248289346
5485,0.2346040964
5486,0.2346040964
5487,0.3323558330
5488,0.3030303001
5489,0.3421309947
5490,0.3616813421
5491,0.3323558330
5492,0.3030303001
5493,0.3519061565
5494,0.3812316703
5495,0.3616813421
5496,0.3225806236
5497,0.2639296054
5498,0.2932551193
5499,0.2834799575
5500,0.2834799575
5501,0.2541544437
5502,0.2737047910
5503,0.3714565038
5504,0.3812316703
5505,0.3519061565
5506,0.3225806236
5507,0.3616813421
5508,0.4301075458
5509,0.4789833545
5510,0.4007820129
5511,0.4007820129
5512,0.4105571746
5513,0.3910068321
5514,0.3910068321
5515,0.3128054618
5516,0.2639296054
5517,0.2346040964
5518,0.2052785873
5519,0.1857282543
5520,0.1661779165
5521,0.1466275596
5522,0.1270772218
5523,0.1075268864
5524,0.0879765415
5525,0.0782013654
5526,0.0782013654
5527,0.0879765415
5528,0.0977517032
5529,0.0977517032
5530,0.0782013654
5531,0.0684261989
5532,0.0782013654
5533,0.0684261989
5534,0.0586510229
5535,0.0782013654
5536,0.0879765415
5537,0.0879765415
5538,0.0977517032
5539,0.0782013654
5540,0.0782013654
5541,0.0684261989
5542,0.0977517032
5543,0.0977517032
5544,0.0977517032
5545,0.1173020482
5546,0.1270772218
5547,0.1270772218
5548,0.1173020482
5549,0.1270772218
5550,0.1270772218
5551,0.1173020482
5552,0.0977517032
5553,0.0879765415
5554,0.0684261989
5555,0.0782013654
5556,0.1075268864
5557,0.1368523955
5558,0.1270772218
5559,0.1173020482
5560,0.1075268864
5561,0.1075268864
5562,0.1075268864
5563,0.1270772218
5564,0.1661779165
5565,0.1955034160
5566,0.1955034160
5567,0.1955034160
5568,0.1857282543
5569,0.1661779165
5570,0.1466275596
5571,0.1368523955
5572,0.1270772218
5573,0.1075268864
5574,0.1075268864
5575,0.1075268864
5576,0.1075268864
5577,0.1075268864
5578,0.1173020482
5579,0.1270772218
5580,0.1368523955
5581,0.1368523955
5582,0.1270772218
5583,0.1173020482
5584,0.0977517032
5585,0.0879765415
5586,0.0879765415
5587,0.0879765415
5588,0.0782013654
5589,0.0684261989
5590,0.0684261989
5591,0.0586510229
5592,0.0684261989
5593,0.0782013654
5594,0.0782013654
5595,0.0782013654
5596,0.0684261989
5597,0.0586510229
5598,0.0391006832
5599,0.0391006832
5600,0.0391006832
5601,0.0391006832
5602,0.0293255119
5603,0.0195503416
5604,0.0195503416
5605,0.0195503416
5606,0.0195503416
5607,0.0293255119
5608,0.0391006832
5609,0.0391006832
5610,0.0391006832
5611,0.0293255119
5612,0.0195503416
5613,0.0195503416
5614,0.0195503416
5615,0.0195503416
5616,0.0293255119
5617,0.0391006832
5618,0.0684261989
5619,0.0782013654
5620,0.0684261989
5621,0.0586510229
5622,0.0488758516
5623,0.0586510229
5624,0.0586510229
5625,0.0488758516
5626,0.0488758516
5627,0.0391006832
5628,0.0391006832
5629,0.0488758516
5630,0.0488758516
5631,0.0391006832
5632,0.0586510229
5633,0.0586510229
5634,0.0488758516
5635,0.0391006832
5636,0.0488758516
5637,0.0391006832
5638,0.0488758516
5639,0.0391006832
5640,0.0391006832
5641,0.0488758516
5642,0.0488758516
5643,0.0782013654
5644,0.0782013654
5645,0.0879765415
5646,0.0879765415
5647,0.1173020482
5648,0.1270772218
5649,0.1075268864
5650,0.0879765415
5651,0.0782013654
5652,0.0586510229
5653,0.0586510229
5654,0.0782013654
5655,0.0977517032
5656,0.1075268864
5657,0.0977517032
5658,0.0879765415
5659,0.0782013654
5660,0.0684261989
5661,0.0586510229
5662,0.0782013654
5663,0.1173020482
5664,0.1466275596
5665,0.1564027309
5666,0.1368523955
5667,0.1368523955
5668,0.1173020482
5669,0.1075268864
5670,0.1075268864
5671,0.1075268864
5672,0.1368523955
5673,0.1368523955
5674,0.1173020482
5675,0.0977517032
5676,0.0782013654
5677,0.0684261989
5678,0.0488758516
5679,0.0586510229
5680,0.0782013654
5681,0.0879765415
5682,0.1270772218
5683,0.1368523955
5684,0.1661779165
5685,0.1661779165
5686,0.1564027309
5687,0.1466275596
5688,0.1368523955
5689,0.1173020482
5690,0.1173020482
5691,0.0977517032
5692,0.1270772218
5693,0.1368523955
5694,0.1270772218
5695,0.1173020482
5696,0.1466275596
5697,0.1759530782
5698,0.1759530782
5699,0.1661779165
5700,0.1759530782
5701,0.1759530782
5702,0.1564027309
5703,0.1564027309
5704,0.2052785873
5705,0.1955034160
5706,0.1857282543
5707,0.1857282543
5708,0.1857282543
5709,0.1759530782
5710,0.1955034160
5711,0.2052785873
5712,0.2443792819
5713,0.2639296054
5714,0.2346040964
5715,0.2248289346
5716,0.2541544437
5717,0.2346040964
5718,0.2150537729
5719,0.2150537729
5720,0.2052785873
5721,0.1857282543
5722,0.1759530782
5723,0.1759530782
5724,0.1857282543
5725,0.1661779165
5726,0.1466275596
5727,0.1564027309
5728,0.1661779165
5729,0.2150537729
5730,0.2346040964
5731,0.2248289346
5732,0.2346040964
5733,0.2150537729
5734,0.2052785873
5735,0.2932551193
5736,0.3714565038
5737,0.4692081928
5738,0.5767350673
5739,0.8406646728
5740,0.9677418708
5741,0.8113391876
5742,0.6744868278
5743,0.6744868278
5744,0.7331378459
5745,0.6744868278
5746,0.5865102291
5747,0.4789833545
5748,0.4007820129
5749,0.3519061565
5750,0.3519061565
5751,0.3519061565
5752,0.3225806236
5753,0.2737047910
5754,0.2248289346
5755,0.1955034160
5756,0.1661779165
5757,0.1466275596
5758,0.1173020482
5759,0.0977517032
5760,0.0879765415
5761,0.0879765415
5762,0.0782013654
5763,0.0684261989
5764,0.0782013654
5765,0.0782013654
5766,0.0879765415
5767,0.0879765415
5768,0.0879765415
5769,0.0684261989
5770,0.0684261989
5771,0.0684261989
5772,0.1075268864
5773,0.1368523955
5774,0.1270772218
5775,0.1075268864
5776,0.0879765415
5777,0.0782013654
5778,0.0684261989
5779,0.0586510229
5780,0.0586510229
5781,0.0684261989
5782,0.0879765415
5783,0.0782013654
5784,0.0977517032
5785,0.1075268864
5786,0.1075268864
5787,0.1173020482
5788,0.1368523955
5789,0.1173020482
5790,0.0977517032
5791,0.0879765415
5792,0.0684261989
5793,0.0586510229
5794,0.0684261989
5795,0.0782013654
5796,0.0879765415
5797,0.1368523955
5798,0.1661779165
5799,0.1955034160
5800,0.2052785873
5801,0.1857282543
5802,0.1564027309
5803,0.1270772218
5804,0.1075268864
5805,0.1075268864
5806,0.1075268864
5807,0.1173020482
5808,0.1564027309
5809,0.1564027309
5810,0.1661779165
5811,0.1661779165
5812,0.1466275596
5813,0.1368523955
5814,0.1173020482
5815,0.0977517032
5816,0.0879765415
5817,0.0879765415
5818,0.0879765415
5819,0.0977517032
5820,0.0977517032
5821,0.0977517032
5822,0.0977517032
5823,0.0782013654
5824,0.0782013654
5825,0.0684261989
5826,0.0782013654
5827,0.0684261989
5828,0.0586510229
5829,0.0488758516
5830,0.0391006832
5831,0.0293255119
5832,0.0488758516
5833,0.0488758516
5834,0.0488758516
5835,0.0391006832
5836,0.0293255119
5837,0.0293255119
5838,0.0293255119
5839,0.0293255119
5840,0.0391006832
5841,0.0488758516
5842,0.0586510229
5843,0.0782013654
5844,0.0879765415
5845,0.0879765415
5846,0.0977517032
5847,0.0879765415
5848,0.0977517032
5849,0.0782013654
5850,0.0684261989
5851,0.0586510229
5852,0.0586510229
5853,0.0684261989
5854,0.0488758516
5855,0.0488758516
5856,0.0391006832
5857,0.0488758516
5858,0.0488758516
5859,0.0586510229
5860,0.0488758516
5861,0.0391006832
5862,0.0391006832
5863,0.0391006832
5864,0.0391006832
5865,0.0391006832
5866,0.0391006832
5867,0.0586510229
5868,0.0977517032
5869,0.1564027309
5870,0.1759530782
5871,0.1759530782
5872,0.1661779165
5873,0.1564027309
5874,0.1466275596
5875,0.1466275596
5876,0.1173020482
5877,0.1368523955
5878,0.1661779165
5879,0.1564027309
5880,0.1368523955
5881,0.1173020482
5882,0.1075268864
5883,0.0977517032
5884,0.0879765415
5885,0.0879765415
5886,0.0782013654
5887,0.0879765415
5888,0.0782013654
5889,0.0684261989
5890,0.0684261989
5891,0.0586510229
5892,0.0488758516
5893,0.0684261989
5894,0.0782013654
5895,0.0782013654
5896,0.0586510229
5897,0.0586510229
5898,0.0488758516
5899,0.0684261989
5900,0.0782013654
5901,0.0684261989
5902,0.0782013654
5903,0.0782013654
5904,0.0879765415
5905,0.0879765415
5906,0.0879765415
5907,0.1075268864
5908,0.1270772218
5909,0.1368523955
5910,0.1173020482
5911,0.0977517032
5912,0.0879765415
5913,0.0879765415
5914,0.0684261989
5915,0.0684261989
5916,0.0586510229
5917,0.0586510229
5918,0.0586510229
5919,0.0684261989
5920,0.0684261989
5921,0.0586510229
5922,0.0684261989
5923,0.0879765415
5924,0.0977517032
5925,0.1270772218
5926,0.1270772218
5927,0.1368523955
5928,0.1368523955
5929,0.1270772218
5930,0.1173020482
5931,0.1368523955
5932,0.1368523955
5933,0.1270772218
5934,0.1270772218
5935,0.1368523955
5936,0.1368523955
5937,0.1466275596
5938,0.1368523955
5939,0.1857282543
5940,0.2443792819
5941,0.2052785873
5942,0.2150537729
5943,0.2052785873
5944,0.2052785873
5945,0.2248289346
5946,0.2052785873
5947,0.2052785873
5948,0.1955034160
5949,0.1759530782
5950,0.1759530782
5951,0.1759530782
5952,0.1564027309
5953,0.1661779165
5954,0.1466275596
5955,0.1368523955
5956,0.1466275596
5957,0.1466275596
5958,0.1466275596
5959,0.1466275596
5960,0.1466275596
5961,0.1368523955
5962,0.1270772218
5963,0.1857282543
5964,0.1857282543
5965,0.1759530782
5966,0.3225806236
5967,0.5180840492
5968,0.5962854385
5969,0.8211143493
5970,1.1045943498
5971,1.0654937028
5972,0.9090909004
5973,0.8699902534
5974,0.9090909004
5975,0.8406646728
5976,0.7135874748
5977,0.6353860855
5978,0.5278592109
5979,0.4496578693
5980,0.3812316703
5981,0.3421309947
5982,0.2932551193
5983,0.2737047910
5984,0.3030303001
5985,0.3030303001
5986,0.2834799575
5987,0.2737047910
5988,0.2248289346
5989,0.2150537729
5990,0.1759530782
5991,0.1857282543
5992,0.1759530782
5993,0.1661779165
5994,0.1466275596
5995,0.1466275596
5996,0.1368523955
5997,0.1075268864
5998,0.0977517032
5999,0.0977517032
6000,0.1075268864
6001,1.0948191833
6002,1.0263929367
6003,0.9872922897
6004,0.8797654151
6005,0.7624633312
6006,0.6842619895
6007,0.7233626842
6008,1.3098728656
6009,1.5738025665
6010,1.2512218952
6011,0.9775171279
6012,1.5738025665
6013,2.1016616821
6014,2.5610947608
6015,2.6197457313
6016,2.1896383762
6017,1.7888562679
6018,1.4662756919
6019,1.3196481466
6020,1.1436949968
6021,0.9872922897
6022,0.8211143493
6023,0.6647116661
6024,0.5865102291
6025,0.5180840492
6026,0.4594330310
6027,0.4301075458
6028,0.4301075458
6029,0.4594330310
6030,0.4203323364
6031,0.3714565038
6032,0.3128054618
6033,0.2541544437
6034,0.2248289346
6035,0.2052785873
6036,0.1564027309
6037,0.1466275596
6038,0.1270772218
6039,0.1173020482
6040,0.0977517032
6041,0.0977517032
6042,0.1466275596
6043,0.1270772218
6044,0.1270772218
6045,0.0977517032
6046,0.0879765415
6047,0.0879765415
6048,0.0782013654
6049,0.0782013654
6050,0.0684261989
6051,0.0684261989
6052,0.0586510229
6053,0.0586510229
6054,0.0782013654
6055,0.0782013654
6056,0.0782013654
6057,0.0684261989
6058,0.0782013654
6059,0.0782013654
6060,0.0782013654
6061,0.0782013654
6062,0.0684261989
6063,0.0586510229
6064,0.0782013654
6065,0.0782013654
6066,0.0782013654
6067,0.0684261989
6068,0.0684261989
6069,0.0586510229
6070,0.0586510229
6071,0.0586510229
6072,0.0586510229
6073,0.0684261989
6074,0.0586510229
6075,0.0782013654
6076,0.0684261989
6077,0.0586510229
6078,0.0684261989
6079,0.0586510229
6080,0.0488758516
6081,0.0586510229
6082,0.0488758516
6083,0.0488758516
6084,0.0488758516
6085,0.0684261989
6086,0.0684261989
6087,0.0879765415
6088,0.0879765415
6089,0.0684261989
6090,0.0586510229
6091,0.0684261989
6092,0.0586510229
6093,0.0488758516
6094,0.0488758516
6095,0.0488758516
6096,0.0586510229
6097,0.0488758516
6098,0.0488758516
6099,0.0488758516
6100,0.0391006832
6101,0.0391006832
6102,0.0391006832
6103,0.0586510229
6104,0.0586510229
6105,0.0879765415
6106,0.1173020482
6107,0.1075268864
6108,0.1075268864
6109,0.1075268864
6110,0.0879765415
6111,0.0782013654
6112,0.0782013654
6113,0.0586510229
6114,0.0684261989
6115,0.0586510229
6116,0.0586510229
6117,0.0586510229
6118,0.0488758516
6119,0.0488758516
6120,0.0488758516
6121,0.0488758516
6122,0.0586510229
6123,0.0586510229
6124,0.0684261989
6125,0.0684261989
6126,0.0684261989
6127,0.0684261989
6128,0.0586510229
6129,0.0586510229
6130,0.0586510229
6131,0.0586510229
6132,0.0684261989
6133,0.0684261989
6134,0.0684261989
6135,0.0684261989
6136,0.0586510229
6137,0.0586510229
6138,0.0488758516
6139,0.0684261989
6140,0.0782013654
6141,0.0782013654
6142,0.0782013654
6143,0.0782013654
6144,0.0879765415
6145,0.0782013654
6146,0.0782013654
6147,0.0782013654
6148,0.0879765415
6149,0.0782013654
6150,0.0879765415
6151,0.0782013654
6152,0.0879765415
6153,0.0977517032
6154,0.1075268864
6155,0.1075268864
6156,0.1173020482
6157,0.1173020482
6158,0.1173020482
6159,0.1173020482
6160,0.1270772218
6161,0.1466275596
6162,0.1466275596
6163,0.1368523955
6164,0.1368523955
6165,0.1466275596
6166,0.1564027309
6167,0.1466275596
6168,0.1368523955
6169,0.1368523955
6170,0.1368523955
6171,0.1759530782
6172,0.1759530782
6173,0.1857282543
6174,0.2052785873
6175,0.2737047910
6176,0.2932551193
6177,0.2834799575
6178,0.2541544437
6179,0.2248289346
6180,0.2639296054
6181,0.2443792819
6182,0.2248289346
6183,0.2443792819
6184,0.2443792819
6185,0.2737047910
6186,0.2932551193
6187,0.2737047910
6188,0.2443792819
6189,0.2248289346
6190,0.2541544437
6191,0.3030303001
6192,0.2834799575
6193,0.3128054618
6194,0.3714565038
6195,0.4496578693
6196,0.8504399299
6197,0.9970674514
6198,0.9481915473
6199,0.8113391876
6200,0.8406646728
6201,0.7722384929
6202,0.8602150917
6203,0.8113391876
6204,0.7820136547
6205,0.8113391876
6206,0.9384163856
6207,0.9481915473
6208,0.7917888641
6209,0.6842619895
6210,0.5669599056
6211,0.6353860855
6212,0.7820136547
6213,0.6647116661
6214,0.6647116661
6215,0.7429130077
6216,0.7917888641
6217,0.7233626842
6218,0.7135874748
6219,0.6940371513
6220,0.6256109237
6221,0.5180840492
6222,0.4496578693
6223,0.4301075458
6224,0.3812316703
6225,0.3519061565
6226,0.3616813421
6227,0.3323558330
6228,0.3421309947
6229,0.3030303001
6230,0.2541544437
6231,0.2541544437
6232,0.2541544437
6233,0.2248289346
6234,0.2248289346
6235,0.3323558330
6236,0.4007820129
6237,0.4789833545
6238,0.4398827075
6239,0.4496578693
6240,0.3812316703
6241,0.3421309947
6242,0.8308895111
6243,0.8113391876
6244,0.6842619895
6245,0.5865102291
6246,0.6060606002
6247,0.5571847438
6248,0.5180840492
6249,0.4594330310
6250,0.4007820129
6251,0.3519061565
6252,0.3030303001
6253,0.3519061565
6254,0.3616813421
6255,0.3225806236
6256,0.2834799575
6257,0.2834799575
6258,0.2737047910
6259,0.2443792819
6260,0.2150537729
6261,0.1857282543
6262,0.1955034160
6263,0.2346040964
6264,0.2541544437
6265,0.2248289346
6266,0.2248289346
6267,0.2443792819
6268,0.2443792819
6269,0.2443792819
6270,0.2052785873
6271,0.1857282543
6272,0.1759530782
6273,0.1759530782
6274,0.1661779165
6275,0.1368523955
6276,0.1270772218
6277,0.1270772218
6278,0.1075268864
6279,0.0977517032
6280,0.0879765415
6281,0.0977517032
6282,0.0977517032
6283,0.1173020482
6284,0.1173020482
6285,0.1173020482
6286,0.0977517032
6287,0.0879765415
6288,0.0977517032
6289,0.0977517032
6290,0.1075268864
6291,0.1075268864
6292,0.0879765415
6293,0.0977517032
6294,0.0977517032
6295,0.0977517032
6296,0.0879765415
6297,0.0879765415
6298,0.0782013654
6299,0.0684261989
6300,0.0684261989
6301,0.0684261989
6302,0.0586510229
6303,0.0684261989
6304,0.0684261989
6305,0.0586510229
6306,0.0684261989
6307,0.0586510229
6308,0.0586510229
6309,0.0586510229
6310,0.0586510229
6311,0.0586510229
6312,0.0782013654
6313,0.0684261989
6314,0.0684261989
6315,0.0684261989
6316,0.0586510229
6317,0.0586510229
6318,0.0586510229
6319,0.0684261989
6320,0.0684261989
6321,0.0586510229
6322,0.0488758516
6323,0.0488758516
6324,0.0391006832
6325,0.0488758516
6326,0.0391006832
6327,0.0488758516
6328,0.0488758516
6329,0.0488758516
6330,0.0391006832
6331,0.0488758516
6332,0.0488758516
6333,0.0684261989
6334,0.0586510229
6335,0.0782013654
6336,0.0977517032
6337,0.0879765415
6338,0.0782013654
6339,0.0684261989
6340,0.0684261989
6341,0.0684261989
6342,0.0684261989
6343,0.0586510229
6344,0.0488758516
6345,0.0488758516
6346,0.0488758516
6347,0.0488758516
6348,0.0488758516
6349,0.0586510229
6350,0.0684261989
6351,0.0586510229
6352,0.0684261989
6353,0.0586510229
6354,0.0488758516
6355,0.0488758516
6356,0.0391006832
6357,0.0391006832
6358,0.0391006832
6359,0.0391006832
6360,0.0488758516
6361,0.0488758516
6362,0.0586510229
6363,0.0586510229
6364,0.0586510229
6365,0.0684261989
6366,0.0684261989
6367,0.0684261989
6368,0.0586510229
6369,0.0684261989
6370,0.0782013654
6371,0.0879765415
6372,0.0977517032
6373,0.1173020482
6374,0.1173020482
6375,0.1270772218
6376,0.1173020482
6377,0.1368523955
6378,0.1466275596
6379,0.1564027309
6380,0.1466275596
6381,0.1368523955
6382,0.1270772218
6383,0.1173020482
6384,0.1075268864
6385,0.1075268864
6386,0.1173020482
6387,0.1368523955
6388,0.1368523955
6389,0.1368523955
6390,0.1368523955
6391,0.1368523955
6392,0.1466275596
6393,0.1661779165
6394,0.1661779165
6395,0.1759530782
6396,0.1661779165
6397,0.1661779165
6398,0.1661779165
6399,0.1759530782
6400,0.1759530782
6401,0.1857282543
6402,0.1564027309
6403,0.1661779165
6404,0.1661779165
6405,0.1661779165
6406,0.1759530782
6407,0.2737047910
6408,0.4105571746
6409,0.4301075458
6410,0.8113391876
6411,0.7526881694
6412,0.7722384929
6413,0.8113391876
6414,0.8113391876
6415,0.8211143493
6416,0.7233626842
6417,0.6256109237
6418,0.5962854385
6419,0.5865102291
6420,0.6060606002
6421,0.5376344203
6422,0.5474095821
6423,1.3391984701
6424,1.5151515007
6425,1.5249266624
6426,1.6911046504
6427,1.4662756919
6428,1.2512218952
6429,1.1143695116
6430,0.9481915473
6431,1.0166177749
6432,0.9481915473
6433,1.2121212482
6434,1.2805473804
6435,1.1436949968
6436,1.0361680984
6437,1.0948191833
6438,1.0948191833
6439,0.9579667091
6440,0.7917888641
6441,0.7135874748
6442,0.6842619895
6443,0.5767350673
6444,0.5180840492
6445,0.5376344203
6446,0.5669599056
6447,0.5767350673
6448,0.5083088874
6449,0.5376344203
6450,0.5571847438
6451,0.5474095821
6452,0.4692081928
6453,0.4301075458
6454,0.5083088874
6455,0.4887585639
6456,0.5180840492
6457,0.5571847438
6458,0.4789833545
6459,0.5180840492
6460,0.8699902534
6461,1.3489736318
6462,1.2218964099
6463,1.1827956390
6464,1.0361680984
6465,0.8602150917
6466,0.8211143493
6467,0.7233626842
6468,0.6647116661
6469,0.5767350673
6470,0.5083088874
6471,0.4301075458
6472,0.3812316703
6473,0.3714565038
6474,0.3323558330
6475,0.2834799575
6476,0.2443792819
6477,0.2150537729
6478,0.1661779165
6479,0.1466275596
6480,0.1759530782
6481,0.1564027309
6482,0.1368523955
6483,0.1173020482
6484,0.1466275596
6485,0.1368523955
6486,0.1564027309
6487,0.1661779165
6488,0.1564027309
6489,0.1466275596
6490,0.1661779165
6491,0.2052785873
6492,0.1955034160
6493,0.1759530782
6494,0.1564027309
6495,0.1368523955
6496,0.1270772218
6497,0.1270772218
6498,0.1173020482
6499,0.1075268864
6500,0.0977517032
6501,0.1075268864
6502,0.0879765415
6503,0.0879765415
6504,0.0879765415
6505,0.0879765415
6506,0.0977517032
6507,0.0977517032
6508,0.0977517032
6509,0.0977517032
6510,0.0977517032
6511,0.0879765415
6512,0.0977517032
6513,0.1075268864
6514,0.1075268864
6515,0.1173020482
6516,0.1075268864
6517,0.0879765415
6518,0.0977517032
6519,0.0977517032
6520,0.0977517032
6521,0.0977517032
6522,0.0977517032
6523,0.0879765415
6524,0.0879765415
6525,0.0879765415
6526,0.0879765415
6527,0.0782013654
6528,0.0782013654
6529,0.0684261989
6530,0.0684261989
6531,0.0782013654
6532,0.0879765415
6533,0.0977517032
6534,0.0977517032
6535,0.0977517032
6536,0.0879765415
6537,0.0782013654
6538,0.0684261989
6539,0.0684261989
6540,0.0684261989
6541,0.0684261989
6542,0.0684261989
6543,0.0684261989
6544,0.0586510229
6545,0.0586510229
6546,0.0586510229
6547,0.0586510229
6548,0.0586510229
6549,0.0586510229
6550,0.0684261989
6551,0.0684261989
6552,0.0782013654
6553,0.0782013654
6554,0.0684261989
6555,0.0684261989
6556,0.0782013654
6557,0.0782013654
6558,0.0586510229
6559,0.0586510229
6560,0.0488758516
6561,0.0488758516
6562,0.0586510229
6563,0.0586510229
6564,0.0488758516
6565,0.0586510229
6566,0.0586510229
6567,0.0586510229
6568,0.0488758516
6569,0.0684261989
6570,0.0782013654
6571,0.0879765415
6572,0.0879765415
6573,0.0782013654
6574,0.0684261989
6575,0.0684261989
6576,0.0586510229
6577,0.0488758516
6578,0.0488758516
6579,0.0488758516
6580,0.0586510229
6581,0.0586510229
6582,0.0586510229
6583,0.0586510229
6584,0.0586510229
6585,0.0684261989
6586,0.0879765415
6587,0.0782013654
6588,0.0684261989
6589,0.0684261989
6590,0.0684261989
6591,0.0782013654
6592,0.0879765415
6593,0.0977517032
6594,0.0977517032
6595,0.1075268864
6596,0.0977517032
6597,0.1075268864
6598,0.1173020482
6599,0.1173020482
6600,0.1173020482
6601,0.1173020482
6602,0.1173020482
6603,0.1270772218
6604,0.1368523955
6605,0.1466275596
6606,0.1466275596
6607,0.1564027309
6608,0.1564027309
6609,0.1564027309
6610,0.1857282543
6611,0.2052785873
6612,0.2248289346
6613,0.2150537729
6614,0.2052785873
6615,0.2150537729
6616,0.2737047910
6617,0.2737047910
6618,0.2346040964
6619,0.2150537729
6620,0.2150537729
6621,0.2052785873
6622,0.2248289346
6623,0.2932551193
6624,0.3323558330
6625,0.3030303001
6626,0.2834799575
6627,0.3030303001
6628,0.3030303001
6629,0.3030303001
6630,0.2834799575
6631,0.2737047910
6632,0.2541544437
6633,0.2443792819
6634,0.4496578693
6635,0.7331378459
6636,0.6940371513
6637,0.7624633312
6638,0.7135874748
6639,0.6353860855
6640,0.6060606002
6641,0.9090909004
6642,0.8015640258
6643,0.7233626842
6644,0.7624633312
6645,0.8699902534
6646,0.8993157386
6647,1.0459432601
6648,1.0850440216
6649,0.9579667091
6650,0.7917888641
6651,0.6549364089
6652,0.5571847438
6653,0.4692081928
6654,0.4007820129
6655,0.3421309947
6656,0.3323558330
6657,0.3812316703
6658,0.3616813421
6659,0.3030303001
6660,0.2541544437
6661,0.2150537729
6662,0.2150537729
6663,0.2346040964
6664,0.2248289346
6665,0.1955034160
6666,0.1759530782
6667,0.1857282543
6668,0.1759530782
6669,0.2248289346
6670,0.2834799575
6671,0.2346040964
6672,0.2346040964
6673,0.2541544437
6674,0.2443792819
6675,0.2150537729
6676,0.1857282543
6677,0.1564027309
6678,0.1661779165
6679,0.1564027309
6680,0.1564027309
6681,0.1466275596
6682,0.1466275596
6683,0.1173020482
6684,0.1466275596
6685,0.1661779165
6686,0.2248289346
6687,0.2346040964
6688,0.2150537729
6689,0.2150537729
6690,0.2052785873
6691,0.1759530782
6692,0.1564027309
6693,0.1368523955
6694,0.1368523955
6695,0.1368523955
6696,0.1368523955
6697,0.1173020482
6698,0.0977517032
6699,0.0977517032
6700,0.0879765415
6701,0.0977517032
6702,0.1075268864
6703,0.1368523955
6704,0.1270772218
6705,0.1173020482
6706,0.1075268864
6707,0.1075268864
6708,0.1075268864
6709,0.1270772218
6710,0.1270772218
6711,0.1075268864
6712,0.0879765415
6713,0.0782013654
6714,0.0684261989
6715,0.0586510229
6716,0.0586510229
6717,0.0684261989
6718,0.0782013654
6719,0.0879765415
6720,0.0879765415
6721,0.0782013654
6722,0.0684261989
6723,0.0684261989
6724,0.0879765415
6725,0.0782013654
6726,0.0782013654
6727,0.0782013654
