0,0.0391006832
1,0.3128054618
2,0.4398827075
3,0.4789833545
4,0.4985337257
5,0.4594330310
6,0.3714565038
7,0.3030303001
8,0.2443792819
9,0.1955034160
10,0.1661779165
11,0.1270772218
12,0.0977517032
13,0.0782013654
14,0.0586510229
15,0.0488758516
16,0.0391006832
17,0.0293255119
18,0.0195503416
19,0.0097751703
20,0.0097751703
21,0.0097751703
22,0.0097751703
23,0.0000000000
24,0.0000000000
25,0.0000000000
26,0.0000000000
27,0.0000000000
28,0.0000000000
29,0.0000000000
30,0.0000000000
31,0.0000000000
32,0.0000000000
33,0.0000000000
34,0.0000000000
35,0.0000000000
36,0.0000000000
37,0.0000000000
38,0.0000000000
39,0.0000000000
40,0.0000000000
41,0.0000000000
42,0.0000000000
43,0.0000000000
44,0.0000000000
45,0.0000000000
46,0.0000000000
47,0.0000000000
48,0.0000000000
49,0.0000000000
50,0.0000000000
51,0.0000000000
52,0.0000000000
53,0.0000000000
54,0.0000000000
55,0.0000000000
56,0.0000000000
57,0.0000000000
58,0.0000000000
59,0.0000000000
60,0.0000000000
61,0.0000000000
62,0.0000000000
63,0.0000000000
64,0.0000000000
65,0.0000000000
66,0.0000000000
67,0.0000000000
68,0.0000000000
69,0.0000000000
70,0.0000000000
71,0.0000000000
72,0.0000000000
73,0.0000000000
74,0.0000000000
75,0.0000000000
76,0.0000000000
77,0.0000000000
78,0.0000000000
79,0.0000000000
80,0.0000000000
81,0.0000000000
82,0.0000000000
83,0.0000000000
84,0.0000000000
85,0.0000000000
86,0.0000000000
87,0.0000000000
88,0.0000000000
89,0.0000000000
90,0.0000000000
91,0.0000000000
92,0.0000000000
93,0.0000000000
94,0.0000000000
95,0.0000000000
96,0.0000000000
97,0.0000000000
98,0.0000000000
99,0.0000000000
100,0.0000000000
101,0.0000000000
102,0.0000000000
103,0.0000000000
104,0.0000000000
105,0.0000000000
106,0.0000000000
107,0.0000000000
108,0.0000000000
109,0.0000000000
110,0.0000000000
111,0.0000000000
112,0.0000000000
113,0.0000000000
114,0.0000000000
115,0.0000000000
116,0.0000000000
117,0.0000000000
118,0.0000000000
119,0.0000000000
120,0.0000000000
121,0.0000000000
122,0.0000000000
123,0.0000000000
124,0.0000000000
125,0.0000000000
126,0.0000000000
127,0.0000000000
128,0.0000000000
129,0.0000000000
130,0.0000000000
131,0.0000000000
132,0.0000000000
133,0.0000000000
134,0.0000000000
135,0.0000000000
136,0.0000000000
137,0.0000000000
138,0.0000000000
139,0.0000000000
140,0.0000000000
141,0.0000000000
142,0.0000000000
143,0.0000000000
144,0.0000000000
145,0.0000000000
146,0.0000000000
147,0.0000000000
148,0.0000000000
149,0.0000000000
150,0.0000000000
151,0.0000000000
152,0.0000000000
153,0.0097751703
154,0.0097751703
155,0.0000000000
156,0.0000000000
157,0.0000000000
158,0.0000000000
159,0.0000000000
160,0.0097751703
161,0.0195503416
162,0.0195503416
163,0.0097751703
164,0.0097751703
165,0.0195503416
166,0.0293255119
167,0.0293255119
168,0.0293255119
169,0.0391006832
170,0.0391006832
171,0.0391006832
172,0.0391006832
173,0.0488758516
174,0.0488758516
175,0.0488758516
176,0.0488758516
177,0.0488758516
178,0.0586510229
179,0.0488758516
180,0.0488758516
181,0.0586510229
182,0.0488758516
183,0.0488758516
184,0.0586510229
185,0.0586510229
186,0.0488758516
187,0.0488758516
188,0.0586510229
189,0.0488758516
190,0.0488758516
191,0.0391006832
192,0.0391006832
193,0.0391006832
194,0.0293255119
195,0.0293255119
196,0.0293255119
197,0.0195503416
198,0.0195503416
199,0.0195503416
200,0.0195503416
201,0.0195503416
202,0.0097751703
203,0.0195503416
204,0.0195503416
205,0.0293255119
206,0.0293255119
207,0.0195503416
208,0.0195503416
209,0.0097751703
210,0.0097751703
211,0.0195503416
212,0.0293255119
213,0.0293255119
214,0.0293255119
215,0.0293255119
216,0.0293255119
217,0.0195503416
218,0.0195503416
219,0.0293255119
220,0.0293255119
221,0.0293255119
222,0.0195503416
223,0.0293255119
224,0.0391006832
225,0.0293255119
226,0.0293255119
227,0.0293255119
228,0.0293255119
229,0.0391006832
230,0.0391006832
231,0.0391006832
232,0.0488758516
233,0.0488758516
234,0.0488758516
235,0.0488758516
236,0.0391006832
237,0.0391006832
238,0.0293255119
239,0.0293255119
240,0.0391006832
241,0.0293255119
242,0.0293255119
243,0.0293255119
244,0.0293255119
245,0.0293255119
246,0.0195503416
247,0.0195503416
248,0.0195503416
249,0.0195503416
250,0.0293255119
251,0.0293255119
252,0.0293255119
253,0.0586510229
254,0.0782013654
255,0.0977517032
256,0.1270772218
257,0.1466275596
258,0.1466275596
259,0.1466275596
260,0.1270772218
261,0.1466275596
262,0.1564027309
263,0.1661779165
264,0.1661779165
265,0.1857282543
266,0.1955034160
267,0.1661779165
268,0.1564027309
269,0.1466275596
270,0.1466275596
271,0.1564027309
272,0.1564027309
273,0.1466275596
274,0.1270772218
275,0.1075268864
276,0.1270772218
277,0.1368523955
278,0.1173020482
279,0.0977517032
280,0.0782013654
281,0.0684261989
282,0.0684261989
283,0.0586510229
284,0.0586510229
285,0.0488758516
286,0.0488758516
287,0.0488758516
288,0.0488758516
289,0.0391006832
290,0.0391006832
291,0.0391006832
292,0.0391006832
293,0.0391006832
294,0.0293255119
295,0.0195503416
296,0.0195503416
297,0.0195503416
298,0.0097751703
299,0.0195503416
300,0.0195503416
301,0.0097751703
302,0.0000000000
303,0.0097751703
304,0.0097751703
305,0.0391006832
306,0.0488758516
307,0.0488758516
308,0.0488758516
309,0.0586510229
310,0.0586510229
311,0.0586510229
312,0.0586510229
313,0.0488758516
314,0.0391006832
315,0.0391006832
316,0.0391006832
317,0.0293255119
318,0.0293255119
319,0.0293255119
320,0.0293255119
321,0.0195503416
322,0.0293255119
323,0.0293255119
324,0.0293255119
325,0.0293255119
326,0.0293255119
327,0.0293255119
328,0.0293255119
329,0.0293255119
330,0.0391006832
331,0.0488758516
332,0.0391006832
333,0.0391006832
334,0.0391006832
335,0.0391006832
336,0.0391006832
337,0.0293255119
338,0.0391006832
339,0.0586510229
340,0.0488758516
341,0.0488758516
342,0.0391006832
343,0.0391006832
344,0.0488758516
345,0.0488758516
346,0.0586510229
347,0.0488758516
348,0.0391006832
349,0.0293255119
350,0.0293255119
351,0.0195503416
352,0.0195503416
353,0.0097751703
354,0.0097751703
355,0.0097751703
356,0.0097751703
357,0.0097751703
358,0.0000000000
359,0.0000000000
360,0.0097751703
361,0.0195503416
362,0.0391006832
363,0.0684261989
364,0.0977517032
365,0.1075268864
366,0.1661779165
367,0.1955034160
368,0.2052785873
369,0.2737047910
370,0.3030303001
371,0.3030303001
372,0.2834799575
373,0.2932551193
374,0.3421309947
375,0.3128054618
376,0.3128054618
377,0.3421309947
378,0.3323558330
379,0.3128054618
380,0.3616813421
381,0.3616813421
382,0.4203323364
383,0.4301075458
384,0.4496578693
385,0.4496578693
386,0.5474095821
387,0.6060606002
388,0.5962854385
389,0.6940371513
390,0.7722384929
391,0.7233626842
392,0.7624633312
393,0.8015640258
394,0.6940371513
395,0.6158357620
396,0.5571847438
397,0.5474095821
398,0.5376344203
399,0.5669599056
400,0.4985337257
401,0.4692081928
402,0.4692081928
403,0.4105571746
404,0.3812316703
405,0.3421309947
406,0.2737047910
407,0.2443792819
408,0.2150537729
409,0.1955034160
410,0.1759530782
411,0.1466275596
412,0.1173020482
413,0.1075268864
414,0.0879765415
415,0.0684261989
416,0.0586510229
417,0.0488758516
418,0.0391006832
419,0.0391006832
420,0.0391006832
421,0.0293255119
422,0.0488758516
423,0.0586510229
424,0.0879765415
425,0.0879765415
426,0.1270772218
427,0.1466275596
428,0.1564027309
429,0.1564027309
430,0.1564027309
431,0.1564027309
432,0.1368523955
433,0.1173020482
434,0.1270772218
435,0.1368523955
436,0.1270772218
437,0.1368523955
438,0.1466275596
439,0.1368523955
440,0.1270772218
441,0.1857282543
442,0.2052785873
443,0.1955034160
444,0.1857282543
445,0.2052785873
446,0.1759530782
447,0.1661779165
448,0.1466275596
449,0.1368523955
450,0.1564027309
451,0.1368523955
452,0.1270772218
453,0.1270772218
454,0.1368523955
455,0.1466275596
456,0.1564027309
457,0.1466275596
458,0.1466275596
459,0.1466275596
460,0.1466275596
461,0.1368523955
462,0.1466275596
463,0.1368523955
464,0.1270772218
465,0.1270772218
466,0.1173020482
467,0.1173020482
468,0.1173020482
469,0.1075268864
470,0.0977517032
471,0.0977517032
472,0.0977517032
473,0.0879765415
474,0.0977517032
475,0.0977517032
476,0.1075268864
477,0.1466275596
478,0.1661779165
479,0.1759530782
480,0.1661779165
481,0.1661779165
482,0.2052785873
483,0.1857282543
484,0.1857282543
485,0.1955034160
486,0.2541544437
487,0.2639296054
488,0.2834799575
489,0.2737047910
490,0.3421309947
491,0.3323558330
492,0.3519061565
493,0.3714565038
494,0.3421309947
495,0.3225806236
496,0.3421309947
497,0.3421309947
498,0.3714565038
499,0.3910068321
500,0.4105571746
501,0.4692081928
502,0.6060606002
503,0.5767350673
504,0.5767350673
505,0.5278592109
506,0.6060606002
507,0.5865102291
508,0.5669599056
509,0.5962854385
510,0.5962854385
511,0.5767350673
512,0.5571847438
513,0.5376344203
514,0.4985337257
515,0.4692081928
516,0.4398827075
517,0.4887585639
518,0.4887585639
519,0.4594330310
520,0.4105571746
521,0.3714565038
522,0.3421309947
523,0.3421309947
524,0.3030303001
525,0.2639296054
526,0.2541544437
527,0.2150537729
528,0.1857282543
529,0.1564027309
530,0.1270772218
531,0.1075268864
532,0.0879765415
533,0.0782013654
534,0.0684261989
535,0.0488758516
536,0.0391006832
537,0.0391006832
538,0.0293255119
539,0.0293255119
540,0.0391006832
541,0.0391006832
542,0.0391006832
543,0.0586510229
544,0.0879765415
545,0.1075268864
546,0.1368523955
547,0.1368523955
548,0.1368523955
549,0.1564027309
550,0.1564027309
551,0.1466275596
552,0.1368523955
553,0.1368523955
554,0.1270772218
555,0.1173020482
556,0.1075268864
557,0.1270772218
558,0.1466275596
559,0.1368523955
560,0.1270772218
561,0.1173020482
562,0.1173020482
563,0.1270772218
564,0.1173020482
565,0.1368523955
566,0.1368523955
567,0.1368523955
568,0.1466275596
569,0.1466275596
570,0.1466275596
571,0.1466275596
572,0.1368523955
573,0.1270772218
574,0.1270772218
575,0.1270772218
576,0.1173020482
577,0.1075268864
578,0.1270772218
579,0.1270772218
580,0.1368523955
581,0.1368523955
582,0.1564027309
583,0.1564027309
584,0.1759530782
585,0.1661779165
586,0.1661779165
587,0.1759530782
588,0.1661779165
589,0.1564027309
590,0.1466275596
591,0.1466275596
592,0.1270772218
593,0.1270772218
594,0.1173020482
595,0.1075268864
596,0.1368523955
597,0.1368523955
598,0.1564027309
599,0.1661779165
600,0.1661779165
601,0.1857282543
602,0.1955034160
603,0.1759530782
604,0.1661779165
605,0.1661779165
606,0.1857282543
607,0.1857282543
608,0.2443792819
609,0.2639296054
610,0.2639296054
611,0.2443792819
612,0.2248289346
613,0.2639296054
614,0.2443792819
615,0.2541544437
616,0.2639296054
617,0.2737047910
618,0.2834799575
619,0.3030303001
620,0.2834799575
621,0.3030303001
622,0.3128054618
623,0.3421309947
624,0.3616813421
625,0.3812316703
626,0.3616813421
627,0.4496578693
628,0.4203323364
629,0.4594330310
630,0.4692081928
631,0.4496578693
632,0.4496578693
633,0.4985337257
634,0.5083088874
635,0.5474095821
636,0.5962854385
637,0.5376344203
638,0.5474095821
639,0.5180840492
640,0.4887585639
641,0.4594330310
642,0.4887585639
643,0.4789833545
644,0.4692081928
645,0.4789833545
646,0.4594330310
647,0.4203323364
648,0.4007820129
649,0.3519061565
650,0.4203323364
651,0.4007820129
652,0.3812316703
653,0.3323558330
654,0.2932551193
655,0.2443792819
656,0.1955034160
657,0.1661779165
658,0.1368523955
659,0.1173020482
660,0.0977517032
661,0.0977517032
662,0.0977517032
663,0.1173020482
664,0.1466275596
665,0.1466275596
666,0.1661779165
667,0.2150537729
668,0.2248289346
669,0.2150537729
670,0.2346040964
671,0.2150537729
672,0.2150537729
673,0.2052785873
674,0.2052785873
675,0.1955034160
676,0.1857282543
677,0.1955034160
678,0.1955034160
679,0.1857282543
680,0.2052785873
681,0.1857282543
682,0.1661779165
683,0.1564027309
684,0.1759530782
685,0.1661779165
686,0.1466275596
687,0.1466275596
688,0.1270772218
689,0.1466275596
690,0.1564027309
691,0.1368523955
692,0.1270772218
693,0.1270772218
694,0.1368523955
695,0.1270772218
696,0.1270772218
697,0.1466275596
698,0.1564027309
699,0.1466275596
700,0.1368523955
701,0.1466275596
702,0.1466275596
703,0.1857282543
704,0.2052785873
705,0.2052785873
706,0.2346040964
707,0.2443792819
708,0.2150537729
709,0.1857282543
710,0.1661779165
711,0.1661779165
712,0.1466275596
713,0.1368523955
714,0.1368523955
715,0.1270772218
716,0.1466275596
717,0.1368523955
718,0.1368523955
719,0.1270772218
720,0.1075268864
721,0.0977517032
722,0.1075268864
723,0.1075268864
724,0.1075268864
725,0.1075268864
726,0.1075268864
727,0.1075268864
728,0.0977517032
729,0.1075268864
730,0.1270772218
731,0.1270772218
732,0.1368523955
733,0.1466275596
734,0.1564027309
735,0.1955034160
736,0.2346040964
737,0.2150537729
738,0.2443792819
739,0.2541544437
740,0.2639296054
741,0.2932551193
742,0.3030303001
743,0.2834799575
744,0.3421309947
745,0.4203323364
746,0.4203323364
747,0.4203323364
748,0.4105571746
749,0.3812316703
750,0.4203323364
751,0.3714565038
752,0.3519061565
753,0.3323558330
754,0.3128054618
755,0.3519061565
756,0.3616813421
757,0.3812316703
758,0.3812316703
759,0.4594330310
760,0.4692081928
761,0.4594330310
762,0.4887585639
763,0.4985337257
764,0.5083088874
765,0.5767350673
766,0.6549364089
767,0.7429130077
768,0.6647116661
769,0.6842619895
770,0.7331378459
771,0.7526881694
772,0.6647116661
773,0.5865102291
774,0.6353860855
775,0.6353860855
776,0.6060606002
777,0.5962854385
778,0.5474095821
779,0.5180840492
780,0.4887585639
781,0.4398827075
782,0.4398827075
783,0.4398827075
784,0.3812316703
785,0.3225806236
786,0.2834799575
787,0.2443792819
788,0.1955034160
789,0.1661779165
790,0.1466275596
791,0.1173020482
792,0.1075268864
793,0.0782013654
794,0.0684261989
795,0.0586510229
796,0.0488758516
797,0.0586510229
798,0.0488758516
799,0.0586510229
800,0.0684261989
801,0.0977517032
802,0.1270772218
803,0.1270772218
804,0.2052785873
805,0.2248289346
806,0.2052785873
807,0.2052785873
808,0.1857282543
809,0.1759530782
810,0.2052785873
811,0.2052785873
812,0.1955034160
813,0.1759530782
814,0.1564027309
815,0.1759530782
816,0.1661779165
817,0.1759530782
818,0.2052785873
819,0.2150537729
820,0.1955034160
821,0.2052785873
822,0.2052785873
823,0.2052785873
824,0.2052785873
825,0.2052785873
826,0.2150537729
827,0.2150537729
828,0.2541544437
829,0.2443792819
830,0.2248289346
831,0.2541544437
832,0.2541544437
833,0.2443792819
834,0.2346040964
835,0.2150537729
836,0.2541544437
837,0.2737047910
838,0.2834799575
839,0.2541544437
840,0.3030303001
841,0.2834799575
842,0.2639296054
843,0.2346040964
844,0.2150537729
845,0.2150537729
846,0.2052785873
847,0.2150537729
848,0.2443792819
849,0.2248289346
850,0.2346040964
851,0.2150537729
852,0.2150537729
853,0.2052785873
854,0.2150537729
855,0.1857282543
856,0.1661779165
857,0.1466275596
858,0.1368523955
859,0.1759530782
860,0.1661779165
861,0.1759530782
862,0.1564027309
863,0.1661779165
864,0.1466275596
865,0.1466275596
866,0.1368523955
867,0.1270772218
868,0.1564027309
869,0.1564027309
870,0.1564027309
871,0.1759530782
872,0.1759530782
873,0.2443792819
874,0.2443792819
875,0.2737047910
876,0.2834799575
877,0.3030303001
878,0.2834799575
879,0.2834799575
880,0.2834799575
881,0.3128054618
882,0.3128054618
883,0.3421309947
884,0.4496578693
885,0.4789833545
886,0.4887585639
887,0.5376344203
888,0.5376344203
889,0.5571847438
890,0.6060606002
891,0.6353860855
892,0.6940371513
893,0.6158357620
894,0.6256109237
895,0.6256109237
896,0.5865102291
897,0.5571847438
898,0.4985337257
899,0.4985337257
900,0.4398827075
901,0.4203323364
902,0.3910068321
903,0.3812316703
904,0.3812316703
905,0.4007820129
906,0.4692081928
907,0.5083088874
908,0.5376344203
909,0.4887585639
910,0.4105571746
911,0.3714565038
912,0.3421309947
913,0.3128054618
914,0.2932551193
915,0.2737047910
916,0.2541544437
917,0.2346040964
918,0.2346040964
919,0.2248289346
920,0.2052785873
921,0.2052785873
922,0.1759530782
923,0.1466275596
924,0.1270772218
925,0.1173020482
926,0.1075268864
927,0.1173020482
928,0.1075268864
929,0.1075268864
930,0.0977517032
931,0.0977517032
932,0.0977517032
933,0.1270772218
934,0.1368523955
935,0.1368523955
936,0.1368523955
937,0.1368523955
938,0.1270772218
939,0.1368523955
940,0.1270772218
941,0.1368523955
942,0.1368523955
943,0.1270772218
944,0.1270772218
945,0.1368523955
946,0.1564027309
947,0.1564027309
948,0.1857282543
949,0.1759530782
950,0.1564027309
951,0.1759530782
952,0.1661779165
953,0.1661779165
954,0.1759530782
955,0.2150537729
956,0.2346040964
957,0.2052785873
958,0.2150537729
959,0.2248289346
960,0.2052785873
961,0.2150537729
962,0.1955034160
963,0.1759530782
964,0.1857282543
965,0.1759530782
966,0.1857282543
967,0.1955034160
968,0.1759530782
969,0.1857282543
970,0.1955034160
971,0.2052785873
972,0.1955034160
973,0.2052785873
974,0.1955034160
975,0.2052785873
976,0.2639296054
977,0.2639296054
978,0.2639296054
979,0.2834799575
980,0.3128054618
981,0.3323558330
982,0.3421309947
983,0.3225806236
984,0.3128054618
985,0.3128054618
986,0.3030303001
987,0.3225806236
988,0.3128054618
989,0.2834799575
990,0.2639296054
991,0.2346040964
992,0.2443792819
993,0.2541544437
994,0.2639296054
995,0.2541544437
996,0.2639296054
997,0.2541544437
998,0.2639296054
999,0.2541544437
1000,0.2346040964
1001,0.4985337257
1002,0.4007820129
1003,0.3519061565
1004,0.3323558330
1005,0.2834799575
1006,0.2541544437
1007,0.2150537729
1008,0.2150537729
1009,0.2150537729
1010,0.2150537729
1011,0.2052785873
1012,0.2052785873
1013,0.2052785873
1014,0.2150537729
1015,0.2639296054
1016,0.3030303001
1017,0.2932551193
1018,0.2932551193
1019,0.3421309947
1020,0.3616813421
1021,0.3323558330
1022,0.3128054618
1023,0.3519061565
1024,0.3714565038
1025,0.3910068321
1026,0.3225806236
1027,0.3225806236
1028,0.3812316703
1029,0.3519061565
1030,0.3714565038
1031,0.4007820129
1032,0.3910068321
1033,0.3616813421
1034,0.3421309947
1035,0.3225806236
1036,0.3128054618
1037,0.2834799575
1038,0.2639296054
1039,0.2834799575
1040,0.2639296054
1041,0.2248289346
1042,0.1857282543
1043,0.1564027309
1044,0.1466275596
1045,0.1270772218
1046,0.1075268864
1047,0.0977517032
1048,0.0879765415
1049,0.0684261989
1050,0.0684261989
1051,0.0586510229
1052,0.0586510229
1053,0.0586510229
1054,0.0488758516
1055,0.0488758516
1056,0.0488758516
1057,0.0488758516
1058,0.0488758516
1059,0.0391006832
1060,0.0391006832
1061,0.0293255119
1062,0.0293255119
1063,0.0293255119
1064,0.0293255119
1065,0.0293255119
1066,0.0391006832
1067,0.0391006832
1068,0.0488758516
1069,0.0782013654
1070,0.0879765415
1071,0.1075268864
1072,0.1564027309
1073,0.1564027309
1074,0.1466275596
1075,0.1466275596
1076,0.1759530782
1077,0.1564027309
1078,0.1661779165
1079,0.1661779165
1080,0.1466275596
1081,0.1466275596
1082,0.1368523955
1083,0.1368523955
1084,0.1466275596
1085,0.1661779165
1086,0.1466275596
1087,0.1368523955
1088,0.1270772218
1089,0.1270772218
1090,0.1368523955
1091,0.1368523955
1092,0.1466275596
1093,0.1857282543
1094,0.1661779165
1095,0.1466275596
1096,0.1564027309
1097,0.1759530782
1098,0.1564027309
1099,0.1564027309
1100,0.1564027309
1101,0.1368523955
1102,0.1368523955
1103,0.1466275596
1104,0.1466275596
1105,0.1466275596
1106,0.1564027309
1107,0.1661779165
1108,0.1564027309
1109,0.1466275596
1110,0.1466275596
1111,0.1466275596
1112,0.1466275596
1113,0.1661779165
1114,0.1564027309
1115,0.1368523955
1116,0.1466275596
1117,0.1368523955
1118,0.1368523955
1119,0.1270772218
1120,0.1270772218
1121,0.1270772218
1122,0.1270772218
1123,0.1075268864
1124,0.1466275596
1125,0.1466275596
1126,0.1368523955
1127,0.1466275596
1128,0.1466275596
1129,0.1759530782
1130,0.1857282543
1131,0.1661779165
1132,0.1661779165
1133,0.1955034160
1134,0.2150537729
1135,0.2052785873
1136,0.1857282543
1137,0.1661779165
1138,0.1857282543
1139,0.1759530782
1140,0.1955034160
1141,0.2346040964
1142,0.2737047910
1143,0.2932551193
1144,0.2932551193
1145,0.2737047910
1146,0.2443792819
1147,0.2346040964
1148,0.2932551193
1149,0.3030303001
1150,0.3616813421
1151,0.3421309947
1152,0.3519061565
1153,0.3421309947
1154,0.3519061565
1155,0.3421309947
1156,0.3421309947
1157,0.3421309947
1158,0.3225806236
1159,0.3128054618
1160,0.3128054618
1161,0.3714565038
1162,0.3225806236
1163,0.2834799575
1164,0.2346040964
1165,0.1857282543
1166,0.1564027309
1167,0.1270772218
1168,0.0977517032
1169,0.0782013654
1170,0.0782013654
1171,0.0684261989
1172,0.0684261989
1173,0.0586510229
1174,0.0586510229
1175,0.0488758516
1176,0.0391006832
1177,0.0391006832
1178,0.0391006832
1179,0.0293255119
1180,0.0293255119
1181,0.0293255119
1182,0.0293255119
1183,0.0293255119
1184,0.0293255119
1185,0.0391006832
1186,0.0391006832
1187,0.0488758516
1188,0.0586510229
1189,0.0977517032
1190,0.0879765415
1191,0.1075268864
1192,0.1173020482
1193,0.1173020482
1194,0.1466275596
1195,0.1270772218
1196,0.1173020482
1197,0.1270772218
1198,0.1368523955
1199,0.1759530782
1200,0.1564027309
1201,0.1759530782
1202,0.1857282543
1203,0.1955034160
1204,0.2052785873
1205,0.2248289346
1206,0.2737047910
1207,0.2346040964
1208,0.2541544437
1209,0.2443792819
1210,0.2248289346
1211,0.2346040964
1212,0.2443792819
1213,0.2541544437
1214,0.2639296054
1215,0.2737047910
1216,0.2834799575
1217,0.2834799575
1218,0.2834799575
1219,0.2932551193
1220,0.3519061565
1221,0.3812316703
1222,0.3323558330
1223,0.2932551193
1224,0.2443792819
1225,0.2346040964
1226,0.2248289346
1227,0.2052785873
1228,0.1857282543
1229,0.1857282543
1230,0.1955034160
1231,0.1955034160
1232,0.1759530782
1233,0.1661779165
1234,0.1857282543
1235,0.1661779165
1236,0.1759530782
1237,0.1955034160
1238,0.2052785873
1239,0.1955034160
1240,0.1661779165
1241,0.1661779165
1242,0.1857282543
1243,0.1661779165
1244,0.1564027309
1245,0.1466275596
1246,0.1368523955
1247,0.1564027309
1248,0.1661779165
1249,0.1955034160
1250,0.1955034160
1251,0.2052785873
1252,0.1955034160
1253,0.2248289346
1254,0.2639296054
1255,0.3128054618
1256,0.3030303001
1257,0.2737047910
1258,0.2834799575
1259,0.2834799575
1260,0.3421309947
1261,0.3616813421
1262,0.3323558330
1263,0.3616813421
1264,0.3812316703
1265,0.4105571746
1266,0.4007820129
1267,0.3616813421
1268,0.3714565038
1269,0.4105571746
1270,0.4105571746
1271,0.3812316703
1272,0.3910068321
1273,0.4105571746
1274,0.4985337257
1275,0.4594330310
1276,0.4398827075
1277,0.4301075458
1278,0.4594330310
1279,0.4105571746
1280,0.3714565038
1281,0.3519061565
1282,0.3225806236
1283,0.2639296054
1284,0.2248289346
1285,0.1857282543
1286,0.1661779165
1287,0.1270772218
1288,0.1075268864
1289,0.0879765415
1290,0.0782013654
1291,0.0684261989
1292,0.0488758516
1293,0.0488758516
1294,0.0391006832
1295,0.0293255119
1296,0.0391006832
1297,0.0391006832
1298,0.0391006832
1299,0.0391006832
1300,0.0391006832
1301,0.0488758516
1302,0.0586510229
1303,0.0684261989
1304,0.0586510229
1305,0.0684261989
1306,0.0782013654
1307,0.0879765415
1308,0.0977517032
1309,0.0977517032
1310,0.1075268864
1311,0.1075268864
1312,0.1173020482
1313,0.1368523955
1314,0.1857282543
1315,0.1857282543
1316,0.1955034160
1317,0.2052785873
1318,0.2150537729
1319,0.2052785873
1320,0.2346040964
1321,0.2248289346
1322,0.2150537729
1323,0.2248289346
1324,0.2541544437
1325,0.2346040964
1326,0.1955034160
1327,0.1857282543
1328,0.1759530782
1329,0.1857282543
1330,0.1857282543
1331,0.1955034160
1332,0.1955034160
1333,0.1857282543
1334,0.2150537729
1335,0.1955034160
1336,0.1661779165
1337,0.1759530782
1338,0.1661779165
1339,0.1661779165
1340,0.1759530782
1341,0.1857282543
1342,0.1759530782
1343,0.1564027309
1344,0.1564027309
1345,0.1759530782
1346,0.1857282543
1347,0.1857282543
1348,0.1564027309
1349,0.1857282543
1350,0.1661779165
1351,0.1564027309
1352,0.1564027309
1353,0.1466275596
1354,0.1564027309
1355,0.1368523955
1356,0.1368523955
1357,0.1466275596
1358,0.1857282543
1359,0.1759530782
1360,0.1759530782
1361,0.1661779165
1362,0.1466275596
1363,0.1466275596
1364,0.1759530782
1365,0.1759530782
1366,0.1661779165
1367,0.1564027309
1368,0.1564027309
1369,0.1661779165
1370,0.1564027309
1371,0.1661779165
1372,0.1955034160
1373,0.2248289346
1374,0.2737047910
1375,0.2346040964
1376,0.2150537729
1377,0.2346040964
1378,0.2541544437
1379,0.3421309947
1380,0.3616813421
1381,0.3421309947
1382,0.3421309947
1383,0.3225806236
1384,0.3421309947
1385,0.3225806236
1386,0.3323558330
1387,0.3128054618
1388,0.3323558330
1389,0.3128054618
1390,0.3616813421
1391,0.3910068321
1392,0.4007820129
1393,0.4887585639
1394,0.5180840492
1395,0.4692081928
1396,0.4692081928
1397,0.4496578693
1398,0.4301075458
1399,0.3910068321
1400,0.3421309947
1401,0.3225806236
1402,0.2737047910
1403,0.2541544437
1404,0.2248289346
1405,0.2346040964
1406,0.2150537729
1407,0.2052785873
1408,0.1759530782
1409,0.1466275596
1410,0.1661779165
1411,0.1368523955
1412,0.1270772218
1413,0.1075268864
1414,0.0879765415
1415,0.0684261989
1416,0.0586510229
1417,0.0488758516
1418,0.0488758516
1419,0.0391006832
1420,0.0391006832
1421,0.0391006832
1422,0.0293255119
1423,0.0391006832
1424,0.0391006832
1425,0.0293255119
1426,0.0293255119
1427,0.0391006832
1428,0.0391006832
1429,0.0488758516
1430,0.0488758516
1431,0.0488758516
1432,0.0488758516
1433,0.0586510229
1434,0.0684261989
1435,0.0586510229
1436,0.0684261989
1437,0.0782013654
1438,0.0977517032
1439,0.1075268864
1440,0.1173020482
1441,0.1173020482
1442,0.1270772218
1443,0.1173020482
1444,0.1173020482
1445,0.1075268864
1446,0.1075268864
1447,0.1173020482
1448,0.1075268864
1449,0.0977517032
1450,0.0977517032
1451,0.1075268864
1452,0.1466275596
1453,0.1466275596
1454,0.1661779165
1455,0.1564027309
1456,0.1466275596
1457,0.1564027309
1458,0.1759530782
1459,0.1759530782
1460,0.1564027309
1461,0.1857282543
1462,0.2150537729
1463,0.2052785873
1464,0.1759530782
1465,0.1857282543
1466,0.1759530782
1467,0.1661779165
1468,0.1661779165
1469,0.1466275596
1470,0.1466275596
1471,0.1564027309
1472,0.1368523955
1473,0.1466275596
1474,0.1270772218
1475,0.1368523955
1476,0.1466275596
1477,0.1564027309
1478,0.1661779165
1479,0.1564027309
1480,0.1564027309
1481,0.1759530782
1482,0.1661779165
1483,0.1466275596
1484,0.1368523955
1485,0.1466275596
1486,0.1368523955
1487,0.1270772218
1488,0.1466275596
1489,0.1661779165
1490,0.2150537729
1491,0.1857282543
1492,0.1857282543
1493,0.2150537729
1494,0.1955034160
1495,0.1857282543
1496,0.1857282543
1497,0.2248289346
1498,0.2639296054
1499,0.2443792819
1500,0.2443792819
1501,0.2346040964
1502,0.2248289346
1503,0.2248289346
1504,0.2639296054
1505,0.2443792819
1506,0.2150537729
1507,0.2737047910
1508,0.3030303001
1509,0.2932551193
1510,0.3421309947
1511,0.3714565038
1512,0.4007820129
1513,0.5083088874
1514,0.4985337257
1515,0.5278592109
1516,0.5376344203
1517,0.5865102291
1518,0.7233626842
1519,0.7624633312
1520,0.8113391876
1521,0.8113391876
1522,0.7722384929
1523,0.7722384929
1524,0.6842619895
1525,0.6158357620
1526,0.6940371513
1527,0.6647116661
1528,0.6256109237
1529,0.5571847438
1530,0.5083088874
1531,0.4496578693
1532,0.4007820129
1533,0.3519061565
1534,0.3128054618
1535,0.2737047910
1536,0.2248289346
1537,0.1857282543
1538,0.1466275596
1539,0.1173020482
1540,0.0879765415
1541,0.0782013654
1542,0.0684261989
1543,0.0488758516
1544,0.0488758516
1545,0.0391006832
1546,0.0391006832
1547,0.0293255119
1548,0.0293255119
1549,0.0293255119
1550,0.0293255119
1551,0.0391006832
1552,0.0488758516
1553,0.0488758516
1554,0.0684261989
1555,0.0782013654
1556,0.0782013654
1557,0.0879765415
1558,0.0879765415
1559,0.0879765415
1560,0.1075268864
1561,0.1564027309
1562,0.1466275596
1563,0.1466275596
1564,0.1564027309
1565,0.1466275596
1566,0.1368523955
1567,0.1466275596
1568,0.1466275596
1569,0.1661779165
1570,0.1759530782
1571,0.1857282543
1572,0.1759530782
1573,0.1759530782
1574,0.1661779165
1575,0.1955034160
1576,0.1759530782
1577,0.2150537729
1578,0.1955034160
1579,0.1564027309
1580,0.1661779165
1581,0.1857282543
1582,0.1759530782
1583,0.1564027309
1584,0.1661779165
1585,0.1661779165
1586,0.1759530782
1587,0.1759530782
1588,0.2150537729
1589,0.1857282543
1590,0.1857282543
1591,0.1857282543
1592,0.1759530782
1593,0.1564027309
1594,0.1466275596
1595,0.1368523955
1596,0.1564027309
1597,0.1564027309
1598,0.1661779165
1599,0.1955034160
1600,0.1857282543
1601,0.1661779165
1602,0.1661779165
1603,0.1661779165
1604,0.1759530782
1605,0.1759530782
1606,0.1857282543
1607,0.2052785873
1608,0.1955034160
1609,0.2052785873
1610,0.2248289346
1611,0.2248289346
1612,0.2052785873
1613,0.2052785873
1614,0.2052785873
1615,0.2150537729
1616,0.2052785873
1617,0.2052785873
1618,0.1759530782
1619,0.1759530782
1620,0.1759530782
1621,0.1661779165
1622,0.1955034160
1623,0.2248289346
1624,0.2248289346
1625,0.2150537729
1626,0.2248289346
1627,0.2150537729
1628,0.2248289346
1629,0.2443792819
1630,0.3128054618
1631,0.3030303001
1632,0.2932551193
1633,0.2737047910
1634,0.2541544437
1635,0.2639296054
1636,0.2834799575
1637,0.2541544437
1638,0.2639296054
1639,0.3030303001
1640,0.2834799575
1641,0.2932551193
1642,0.2932551193
1643,0.3030303001
1644,0.3128054618
1645,0.3030303001
1646,0.2834799575
1647,0.2541544437
1648,0.2834799575
1649,0.3030303001
1650,0.3714565038
1651,0.4594330310
1652,0.5083088874
1653,0.4692081928
1654,0.4203323364
1655,0.4007820129
1656,0.3910068321
1657,0.3616813421
1658,0.3421309947
1659,0.3519061565
1660,0.3714565038
1661,0.3812316703
1662,0.4398827075
1663,0.4594330310
1664,0.4887585639
1665,0.4496578693
1666,0.5083088874
1667,0.4789833545
1668,0.4692081928
1669,0.5376344203
1670,0.5083088874
1671,0.4985337257
1672,0.4887585639
1673,0.5669599056
1674,0.4887585639
1675,0.4301075458
1676,0.3714565038
1677,0.3225806236
1678,0.2541544437
1679,0.2150537729
1680,0.1759530782
1681,0.1466275596
1682,0.1173020482
1683,0.0977517032
1684,0.0782013654
1685,0.0782013654
1686,0.0684261989
1687,0.0586510229
1688,0.0586510229
1689,0.0488758516
1690,0.0586510229
1691,0.0586510229
1692,0.0586510229
1693,0.0684261989
1694,0.0782013654
1695,0.0879765415
1696,0.0977517032
1697,0.1173020482
1698,0.1270772218
1699,0.1466275596
1700,0.1857282543
1701,0.2541544437
1702,0.2639296054
1703,0.2346040964
1704,0.2541544437
1705,0.2443792819
1706,0.2248289346
1707,0.2346040964
1708,0.2443792819
1709,0.2346040964
1710,0.2248289346
1711,0.3030303001
1712,0.3421309947
1713,0.3616813421
1714,0.3714565038
1715,0.3910068321
1716,0.3323558330
1717,0.3616813421
1718,0.4398827075
1719,0.3910068321
1720,0.3421309947
1721,0.3714565038
1722,0.3519061565
1723,0.3616813421
1724,0.3714565038
1725,0.3519061565
1726,0.3323558330
1727,0.3519061565
1728,0.3421309947
1729,0.3519061565
1730,0.3128054618
1731,0.3616813421
1732,0.3616813421
1733,0.3128054618
1734,0.3616813421
1735,0.3323558330
1736,0.3030303001
1737,0.3225806236
1738,0.3616813421
1739,0.3812316703
1740,0.3225806236
1741,0.2834799575
1742,0.2346040964
1743,0.2248289346
1744,0.2541544437
1745,0.2443792819
1746,0.2150537729
1747,0.1857282543
1748,0.2052785873
1749,0.2248289346
1750,0.2346040964
1751,0.2150537729
1752,0.2052785873
1753,0.1955034160
1754,0.1759530782
1755,0.2150537729
1756,0.2150537729
1757,0.2248289346
1758,0.2052785873
1759,0.1857282543
1760,0.1857282543
1761,0.1857282543
1762,0.1759530782
1763,0.1759530782
1764,0.1759530782
1765,0.1759530782
1766,0.1466275596
1767,0.1270772218
1768,0.1075268864
1769,0.0879765415
1770,0.0684261989
1771,0.0684261989
1772,0.0586510229
1773,0.0488758516
1774,0.0488758516
1775,0.0488758516
1776,0.0391006832
1777,0.0293255119
1778,0.0293255119
1779,0.0488758516
1780,0.0684261989
1781,0.1075268864
1782,0.1661779165
1783,0.1564027309
1784,0.1955034160
1785,0.2541544437
1786,0.2932551193
1787,0.3616813421
1788,0.3910068321
1789,0.4692081928
1790,0.5571847438
1791,0.5767350673
1792,0.6353860855
1793,0.5571847438
1794,0.4789833545
1795,0.4789833545
1796,0.5669599056
1797,0.4887585639
1798,0.4789833545
1799,0.4692081928
1800,0.4105571746
1801,0.4301075458
1802,0.4105571746
1803,0.3812316703
1804,0.4203323364
1805,0.3910068321
1806,0.3812316703
1807,0.3421309947
1808,0.3616813421
1809,0.3421309947
1810,0.3519061565
1811,0.3030303001
1812,0.2932551193
1813,0.2737047910
1814,0.2541544437
1815,0.2443792819
1816,0.2346040964
1817,0.2052785873
1818,0.1955034160
1819,0.1759530782
1820,0.1661779165
1821,0.1661779165
1822,0.1661779165
1823,0.2052785873
1824,0.1759530782
1825,0.1564027309
1826,0.1466275596
1827,0.1270772218
1828,0.1075268864
1829,0.0879765415
1830,0.0782013654
1831,0.0879765415
1832,0.0879765415
1833,0.1075268864
1834,0.0879765415
1835,0.1270772218
1836,0.1270772218
1837,0.1368523955
1838,0.1759530782
1839,0.2052785873
1840,0.1955034160
1841,0.1759530782
1842,0.2541544437
1843,0.2346040964
1844,0.2248289346
1845,0.1955034160
1846,0.1857282543
1847,0.1857282543
1848,0.1661779165
1849,0.1564027309
1850,0.1368523955
1851,0.1466275596
1852,0.1368523955
1853,0.1368523955
1854,0.1270772218
1855,0.1270772218
1856,0.1661779165
1857,0.1661779165
1858,0.1857282543
1859,0.1857282543
1860,0.2248289346
1861,0.2248289346
1862,0.2150537729
1863,0.1955034160
1864,0.2052785873
1865,0.2346040964
1866,0.2639296054
1867,0.2541544437
1868,0.2834799575
1869,0.2932551193
1870,0.3519061565
1871,0.3323558330
1872,0.2932551193
1873,0.3225806236
1874,0.2834799575
1875,0.2639296054
1876,0.2639296054
1877,0.2443792819
1878,0.2248289346
1879,0.1955034160
1880,0.1759530782
1881,0.1661779165
1882,0.1564027309
1883,0.1661779165
1884,0.1857282543
1885,0.1759530782
1886,0.1564027309
1887,0.1564027309
1888,0.1661779165
1889,0.1857282543
1890,0.1857282543
1891,0.1661779165
1892,0.1466275596
1893,0.1564027309
1894,0.1466275596
1895,0.1270772218
1896,0.1173020482
1897,0.1075268864
1898,0.1173020482
1899,0.1173020482
1900,0.1173020482
1901,0.1173020482
1902,0.1173020482
1903,0.0977517032
1904,0.1075268864
1905,0.1075268864
1906,0.1075268864
1907,0.0977517032
1908,0.0977517032
1909,0.0977517032
1910,0.1075268864
1911,0.1075268864
1912,0.1173020482
1913,0.1270772218
1914,0.1075268864
1915,0.0977517032
1916,0.0977517032
1917,0.1368523955
1918,0.1368523955
1919,0.1368523955
1920,0.1564027309
1921,0.1661779165
1922,0.1564027309
1923,0.1564027309
1924,0.1759530782
1925,0.1466275596
1926,0.1564027309
1927,0.1466275596
1928,0.1564027309
1929,0.1564027309
1930,0.1759530782
1931,0.1857282543
1932,0.1857282543
1933,0.1857282543
1934,0.1759530782
1935,0.1759530782
1936,0.1564027309
1937,0.1368523955
1938,0.1564027309
1939,0.1466275596
1940,0.1368523955
1941,0.1466275596
1942,0.1368523955
1943,0.1466275596
1944,0.1173020482
1945,0.1270772218
1946,0.1466275596
1947,0.1759530782
1948,0.1759530782
1949,0.1759530782
1950,0.1661779165
1951,0.1759530782
1952,0.1564027309
1953,0.1466275596
1954,0.1564027309
1955,0.1466275596
1956,0.1368523955
1957,0.1270772218
1958,0.1173020482
1959,0.1368523955
1960,0.1173020482
1961,0.1075268864
1962,0.1075268864
1963,0.0977517032
1964,0.0977517032
1965,0.0879765415
1966,0.0782013654
1967,0.0684261989
1968,0.0488758516
1969,0.0391006832
1970,0.0293255119
1971,0.0293255119
1972,0.0293255119
1973,0.0195503416
1974,0.0195503416
1975,0.0097751703
1976,0.0097751703
1977,0.0097751703
1978,0.0097751703
1979,0.0097751703
1980,0.0097751703
1981,0.0097751703
1982,0.0097751703
1983,0.0000000000
1984,0.0000000000
1985,0.0000000000
1986,0.0000000000
1987,0.0000000000
1988,0.0000000000
1989,0.0000000000
1990,0.0000000000
1991,0.0000000000
1992,0.0000000000
1993,0.0000000000
1994,0.0000000000
1995,0.0000000000
1996,0.0000000000
1997,0.0000000000
1998,0.0000000000
1999,0.0000000000
2000,0.0195503416
2001,0.9872922897
2002,0.8015640258
2003,0.6744868278
2004,0.5376344203
2005,0.4496578693
2006,0.3616813421
2007,0.2932551193
2008,0.2443792819
2009,0.2150537729
2010,0.1857282543
2011,0.1661779165
2012,0.1564027309
2013,0.1466275596
2014,0.1368523955
2015,0.1173020482
2016,0.1173020482
2017,0.1270772218
2018,0.1075268864
2019,0.1173020482
2020,0.1173020482
2021,0.0977517032
2022,0.0782013654
2023,0.0684261989
2024,0.0684261989
2025,0.0684261989
2026,0.0488758516
2027,0.0586510229
2028,0.0488758516
2029,0.0488758516
2030,0.0488758516
2031,0.0391006832
2032,0.0391006832
2033,0.0488758516
2034,0.0391006832
2035,0.0391006832
2036,0.0391006832
2037,0.0488758516
2038,0.0391006832
2039,0.0391006832
2040,0.0586510229
2041,0.0684261989
2042,0.0782013654
2043,0.0782013654
2044,0.0782013654
2045,0.0782013654
2046,0.0684261989
2047,0.0684261989
2048,0.0684261989
2049,0.0586510229
2050,0.0684261989
2051,0.0586510229
2052,0.0586510229
2053,0.0684261989
2054,0.0586510229
2055,0.0684261989
2056,0.0684261989
2057,0.0586510229
2058,0.0488758516
2059,0.0586510229
2060,0.0586510229
2061,0.0488758516
2062,0.0586510229
2063,0.0684261989
2064,0.0586510229
2065,0.0684261989
2066,0.0586510229
2067,0.0586510229
2068,0.0586510229
2069,0.0586510229
2070,0.0586510229
2071,0.0586510229
2072,0.0586510229
2073,0.0488758516
2074,0.0684261989
2075,0.0586510229
2076,0.0586510229
2077,0.0586510229
2078,0.0586510229
2079,0.0488758516
2080,0.0488758516
2081,0.0488758516
2082,0.0488758516
2083,0.0391006832
2084,0.0488758516
2085,0.0293255119
2086,0.0293255119
2087,0.0293255119
2088,0.0293255119
2089,0.0293255119
2090,0.0293255119
2091,0.0293255119
2092,0.0293255119
2093,0.0293255119
2094,0.0293255119
2095,0.0391006832
2096,0.0293255119
2097,0.0293255119
2098,0.0293255119
2099,0.0195503416
2100,0.0195503416
2101,0.0195503416
2102,0.0195503416
2103,0.0293255119
2104,0.0195503416
2105,0.0195503416
2106,0.0195503416
2107,0.0195503416
2108,0.0293255119
2109,0.0195503416
2110,0.0293255119
2111,0.0293255119
2112,0.0195503416
2113,0.0293255119
2114,0.0391006832
2115,0.0293255119
2116,0.0293255119
2117,0.0293255119
2118,0.0488758516
2119,0.0293255119
2120,0.0293255119
2121,0.0293255119
2122,0.0391006832
2123,0.0391006832
2124,0.0293255119
2125,0.0293255119
2126,0.0391006832
2127,0.0293255119
2128,0.0293255119
2129,0.0293255119
2130,0.0293255119
2131,0.0293255119
2132,0.0195503416
2133,0.0391006832
2134,0.0293255119
2135,0.0293255119
2136,0.0293255119
2137,0.0293255119
2138,0.0293255119
2139,0.0293255119
2140,0.0391006832
2141,0.0293255119
2142,0.0293255119
2143,0.0391006832
2144,0.0391006832
2145,0.0293255119
2146,0.0293255119
2147,0.0391006832
2148,0.0293255119
2149,0.0195503416
2150,0.0293255119
2151,0.0195503416
2152,0.0195503416
2153,0.0195503416
2154,0.0097751703
2155,0.0097751703
2156,0.0097751703
2157,0.0097751703
2158,0.0000000000
2159,0.0000000000
2160,0.0000000000
2161,0.0000000000
2162,0.0000000000
2163,0.0000000000
2164,0.0000000000
2165,0.0000000000
2166,0.0000000000
2167,0.0000000000
2168,0.0000000000
2169,0.0000000000
2170,0.0000000000
2171,0.0000000000
2172,0.0000000000
2173,0.0000000000
2174,0.0000000000
2175,0.0000000000
2176,0.0000000000
2177,0.0000000000
2178,0.0000000000
2179,0.0000000000
2180,0.0000000000
2181,0.0000000000
2182,0.0000000000
2183,0.0000000000
2184,0.0000000000
2185,0.0000000000
2186,0.0097751703
2187,0.0000000000
2188,0.0000000000
2189,0.0097751703
2190,0.0000000000