0,0.0000000000
1,0.0000000000
2,0.0000000000
3,0.0000000000
4,0.0000000000
5,0.0000000000
6,0.0000000000
7,0.0000000000
8,0.0000000000
9,0.0000000000
10,0.0000000000
11,0.0000000000
12,0.0000000000
13,0.0000000000
14,0.0000000000
15,0.0000000000
16,0.0000000000
17,0.0000000000
18,0.0000000000
19,0.0000000000
20,0.0000000000
21,0.0000000000
22,0.0000000000
23,0.0000000000
24,0.0000000000
25,0.0000000000
26,0.0000000000
27,0.0000000000
28,0.0000000000
29,0.0000000000
30,0.0000000000
31,0.0000000000
32,0.0000000000
33,0.0000000000
34,0.0000000000
35,0.0000000000
36,0.0000000000
37,0.0000000000
38,0.0000000000
39,0.0000000000
40,0.0000000000
41,0.0000000000
42,0.0000000000
43,0.0000000000
44,0.0000000000
45,0.0000000000
46,0.0000000000
47,0.0000000000
48,0.0000000000
49,0.0000000000
50,0.0000000000
51,0.0000000000
52,0.0000000000
53,0.0000000000
54,0.0000000000
55,0.0000000000
56,0.0000000000
57,0.0000000000
58,0.0000000000
59,0.0000000000
60,0.0000000000
61,0.0000000000
62,0.0000000000
63,0.0000000000
64,0.0000000000
65,0.0000000000
66,0.0000000000
67,0.0000000000
68,0.0000000000
69,0.0000000000
70,0.0000000000
71,0.0000000000
72,0.0000000000
73,0.0000000000
74,0.0000000000
75,0.0000000000
76,0.0000000000
77,0.0000000000
78,0.0000000000
79,0.0000000000
80,0.0000000000
81,0.0000000000
82,0.0000000000
83,0.0000000000
84,0.0000000000
85,0.0000000000
86,0.0000000000
87,0.0000000000
88,0.0000000000
89,0.0000000000
90,0.0000000000
91,0.0000000000
92,0.0000000000
93,0.0000000000
94,0.0000000000
95,0.0000000000
96,0.0000000000
97,0.0000000000
98,0.0000000000
99,0.0000000000
100,0.0000000000
101,0.0000000000
102,0.0000000000
103,0.0000000000
104,0.0000000000
105,0.0000000000
106,0.0000000000
107,0.0000000000
108,0.0000000000
109,0.0000000000
110,0.0000000000
111,0.0000000000
112,0.0000000000
113,0.0000000000
114,0.0000000000
115,0.0000000000
116,0.0000000000
117,0.0000000000
118,0.0000000000
119,0.0000000000
120,0.0000000000
121,0.0000000000
122,0.0000000000
123,0.0000000000
124,0.0000000000
125,0.0000000000
126,0.0000000000
127,0.0000000000
128,0.0000000000
129,0.0000000000
130,0.0000000000
131,0.0000000000
132,0.0000000000
133,0.0000000000
134,0.0000000000
135,0.0000000000
136,0.0000000000
137,0.0000000000
138,0.0000000000
139,0.0000000000
140,0.0000000000
141,0.0000000000
142,0.0000000000
143,0.0000000000
144,0.0000000000
145,0.0000000000
146,0.0000000000
147,0.0000000000
148,0.0000000000
149,0.0000000000
150,0.0000000000
151,0.0000000000
152,0.0000000000
153,0.0000000000
154,0.0000000000
155,0.0000000000
156,0.0000000000
157,0.0000000000
158,0.0000000000
159,0.0000000000
160,0.0000000000
161,0.0000000000
162,0.0000000000
163,0.0000000000
164,0.0000000000
165,0.0000000000
166,0.0000000000
167,0.0000000000
168,0.0000000000
169,0.0000000000
170,0.0000000000
171,0.0000000000
172,0.0000000000
173,0.0000000000
174,0.0000000000
175,0.0000000000
176,0.0000000000
177,0.0000000000
178,0.0000000000
179,0.0000000000
180,0.0000000000
181,0.0000000000
182,0.0000000000
183,0.0000000000
184,0.0000000000
185,0.0000000000
186,0.0000000000
187,0.0000000000
188,0.0000000000
189,0.0000000000
190,0.0000000000
191,0.0000000000
192,0.0000000000
193,0.0000000000
194,0.0000000000
195,0.0000000000
196,0.0000000000
197,0.0000000000
198,0.0000000000
199,0.0000000000
200,0.0000000000
201,0.0000000000
202,0.0000000000
203,0.0000000000
204,0.0000000000
205,0.0000000000
206,0.0000000000
207,0.0000000000
208,0.0000000000
209,0.0000000000
210,0.0000000000
211,0.0000000000
212,0.0000000000
213,0.0000000000
214,0.0000000000
215,0.0000000000
216,0.0000000000
217,0.0000000000
218,0.0000000000
219,0.0000000000
220,0.0000000000
221,0.0000000000
222,0.0000000000
223,0.0000000000
224,0.0000000000
225,0.0000000000
226,0.0000000000
227,0.0000000000
228,0.0000000000
229,0.0000000000
230,0.0000000000
231,0.0000000000
232,0.0000000000
233,0.0000000000
234,0.0000000000
235,0.0000000000
236,0.0000000000
237,0.0195503416
238,0.0195503416
239,0.0195503416
240,0.0293255119
241,0.0391006832
242,0.0391006832
243,0.0488758516
244,0.0488758516
245,0.0684261989
246,0.0879765415
247,0.0977517032
248,0.0879765415
249,0.0879765415
250,0.0879765415
251,0.0879765415
252,0.0782013654
253,0.0684261989
254,0.0782013654
255,0.0977517032
256,0.0977517032
257,0.0879765415
258,0.1075268864
259,0.1075268864
260,0.1173020482
261,0.0977517032
262,0.0977517032
263,0.1173020482
264,0.1173020482
265,0.1173020482
266,0.1270772218
267,0.1173020482
268,0.1270772218
269,0.1466275596
270,0.1661779165
271,0.1466275596
272,0.1173020482
273,0.1270772218
274,0.1270772218
275,0.1075268864
276,0.1368523955
277,0.1173020482
278,0.0977517032
279,0.1075268864
280,0.1075268864
281,0.1270772218
282,0.1075268864
283,0.0977517032
284,0.0977517032
285,0.0977517032
286,0.1075268864
287,0.1075268864
288,0.0977517032
289,0.1075268864
290,0.1075268864
291,0.0879765415
292,0.0879765415
293,0.0879765415
294,0.0879765415
295,0.0977517032
296,0.0879765415
297,0.0879765415
298,0.0879765415
299,0.0879765415
300,0.0782013654
301,0.0782013654
302,0.0684261989
303,0.0684261989
304,0.0586510229
305,0.0684261989
306,0.0586510229
307,0.0684261989
308,0.0684261989
309,0.0586510229
310,0.0586510229
311,0.0488758516
312,0.0488758516
313,0.0488758516
314,0.0586510229
315,0.0488758516
316,0.0391006832
317,0.0391006832
318,0.0488758516
319,0.0488758516
320,0.0586510229
321,0.0488758516
322,0.0488758516
323,0.0488758516
324,0.0488758516
325,0.0391006832
326,0.0391006832
327,0.0488758516
328,0.0488758516
329,0.0391006832
330,0.0391006832
331,0.0293255119
332,0.0293255119
333,0.0293255119
334,0.0391006832
335,0.0391006832
336,0.0391006832
337,0.0391006832
338,0.0391006832
339,0.0488758516
340,0.0488758516
341,0.0488758516
342,0.0488758516
343,0.0488758516
344,0.0391006832
345,0.0391006832
346,0.0391006832
347,0.0488758516
348,0.0488758516
349,0.0391006832
350,0.0488758516
351,0.0488758516
352,0.0391006832
353,0.0586510229
354,0.0488758516
355,0.0488758516
356,0.0488758516
357,0.0488758516
358,0.0488758516
359,0.0488758516
360,0.0488758516
361,0.0488758516
362,0.0488758516
363,0.0488758516
364,0.0684261989
365,0.0586510229
366,0.0488758516
367,0.0488758516
368,0.0586510229
369,0.0684261989
370,0.0782013654
371,0.0684261989
372,0.0684261989
373,0.0684261989
374,0.0782013654
375,0.0782013654
376,0.0782013654
377,0.0879765415
378,0.1270772218
379,0.1270772218
380,0.1466275596
381,0.1270772218
382,0.1173020482
383,0.1075268864
384,0.1075268864
385,0.1173020482
386,0.1075268864
387,0.0977517032
388,0.1075268864
389,0.1173020482
390,0.1270772218
391,0.1270772218
392,0.1075268864
393,0.1075268864
394,0.1270772218
395,0.1270772218
396,0.1466275596
397,0.1270772218
398,0.1075268864
399,0.0977517032
400,0.1075268864
401,0.1075268864
402,0.0977517032
403,0.0977517032
404,0.0782013654
405,0.0879765415
406,0.0879765415
407,0.0782013654
408,0.0684261989
409,0.0586510229
410,0.0488758516
411,0.0586510229
412,0.0488758516
413,0.0488758516
414,0.0488758516
415,0.0586510229
416,0.0488758516
417,0.0488758516
418,0.0488758516
419,0.0391006832
420,0.0391006832
421,0.0293255119
422,0.0391006832
423,0.0293255119
424,0.0391006832
425,0.0293255119
426,0.0293255119
427,0.0391006832
428,0.0488758516
429,0.0391006832
430,0.0293255119
431,0.0293255119
432,0.0391006832
433,0.0391006832
434,0.0391006832
435,0.0293255119
436,0.0293255119
437,0.0391006832
438,0.0391006832
439,0.0391006832
440,0.0391006832
441,0.0293255119
442,0.0391006832
443,0.0293255119
444,0.0391006832
445,0.0391006832
446,0.0391006832
447,0.0293255119
448,0.0293255119
449,0.0293255119
450,0.0293255119
451,0.0293255119
452,0.0293255119
453,0.0293255119
454,0.0488758516
455,0.0488758516
456,0.0488758516
457,0.0586510229
458,0.0586510229
459,0.0586510229
460,0.0488758516
461,0.0586510229
462,0.0586510229
463,0.0586510229
464,0.0488758516
465,0.0684261989
466,0.0684261989
467,0.0782013654
468,0.0977517032
469,0.1173020482
470,0.1173020482
471,0.1173020482
472,0.1173020482
473,0.1075268864
474,0.1075268864
475,0.1075268864
476,0.1075268864
477,0.1075268864
478,0.1270772218
479,0.1368523955
480,0.1270772218
481,0.1173020482
482,0.1173020482
483,0.1173020482
484,0.1173020482
485,0.1173020482
486,0.1075268864
487,0.0977517032
488,0.0977517032
489,0.0977517032
490,0.1075268864
491,0.1173020482
492,0.1075268864
493,0.1075268864
494,0.0977517032
495,0.1075268864
496,0.1075268864
497,0.1075268864
498,0.1075268864
499,0.1075268864
500,0.0977517032
501,0.0782013654
502,0.0977517032
503,0.1075268864
504,0.1075268864
505,0.1270772218
506,0.1270772218
507,0.1075268864
508,0.0977517032
509,0.1075268864
510,0.0879765415
511,0.0782013654
512,0.0879765415
513,0.0879765415
514,0.0879765415
515,0.0782013654
516,0.0684261989
517,0.0684261989
518,0.0586510229
519,0.0684261989
520,0.0684261989
521,0.0782013654
522,0.0684261989
523,0.0684261989
524,0.0684261989
525,0.0977517032
526,0.0782013654
527,0.0684261989
528,0.0782013654
529,0.0684261989
530,0.0684261989
531,0.0586510229
532,0.0586510229
533,0.0586510229
534,0.0782013654
535,0.0684261989
536,0.0586510229
537,0.0586510229
538,0.0586510229
539,0.0586510229
540,0.0488758516
541,0.0586510229
542,0.0684261989
543,0.0684261989
544,0.0684261989
545,0.0684261989
546,0.0684261989
547,0.0586510229
548,0.0879765415
549,0.0684261989
550,0.0782013654
551,0.0684261989
552,0.0782013654
553,0.0684261989
554,0.0782013654
555,0.0879765415
556,0.0782013654
557,0.0782013654
558,0.0684261989
559,0.0684261989
560,0.0684261989
561,0.0586510229
562,0.0684261989
563,0.0684261989
564,0.0586510229
565,0.0684261989
566,0.0586510229
567,0.0684261989
568,0.0782013654
569,0.0586510229
570,0.0586510229
571,0.0488758516
572,0.0488758516
573,0.0488758516
574,0.0586510229
575,0.0488758516
576,0.0391006832
577,0.0391006832
578,0.0488758516
579,0.0586510229
580,0.0488758516
581,0.0391006832
582,0.0293255119
583,0.0391006832
584,0.0391006832
585,0.0391006832
586,0.0391006832
587,0.0391006832
588,0.0488758516
589,0.0488758516
590,0.0391006832
591,0.0391006832
592,0.0391006832
593,0.0488758516
594,0.0488758516
595,0.0391006832
596,0.0488758516
597,0.0391006832
598,0.0391006832
599,0.0391006832
600,0.0391006832
601,0.0391006832
602,0.0391006832
603,0.0391006832
604,0.0391006832
605,0.0391006832
606,0.0293255119
607,0.0391006832
608,0.0391006832
609,0.0293255119
610,0.0391006832
611,0.0293255119
612,0.0293255119
613,0.0293255119
614,0.0293255119
615,0.0195503416
616,0.0293255119
617,0.0195503416
618,0.0293255119
619,0.0293255119
620,0.0293255119
621,0.0293255119
622,0.0195503416
623,0.0195503416
624,0.0195503416
625,0.0195503416
626,0.0293255119
627,0.0293255119
628,0.0293255119
629,0.0293255119
630,0.0293255119
631,0.0293255119
632,0.0293255119
633,0.0293255119
634,0.0391006832
635,0.0391006832
636,0.0391006832
637,0.0391006832
638,0.0488758516
639,0.0391006832
640,0.0293255119
641,0.0293255119
642,0.0293255119
643,0.0391006832
644,0.0586510229
645,0.0391006832
646,0.0391006832
647,0.0391006832
648,0.0391006832
649,0.0293255119
650,0.0293255119
651,0.0293255119
652,0.0293255119
653,0.0391006832
654,0.0391006832
655,0.0293255119
656,0.0391006832
657,0.0293255119
658,0.0293255119
659,0.0293255119
660,0.0293255119
661,0.0293255119
662,0.0293255119
663,0.0293255119
664,0.0293255119
665,0.0293255119
666,0.0293255119
667,0.0293255119
668,0.0293255119
669,0.0391006832
670,0.0391006832
671,0.0293255119
672,0.0293255119
673,0.0293255119
674,0.0293255119
675,0.0293255119
676,0.0293255119
677,0.0293255119
678,0.0293255119
679,0.0293255119
680,0.0293255119
681,0.0391006832
682,0.0391006832
683,0.0391006832
684,0.0391006832
685,0.0488758516
686,0.0391006832
687,0.0391006832
688,0.0488758516
689,0.0488758516
690,0.0586510229
691,0.0586510229
692,0.0586510229
693,0.0684261989
694,0.0684261989
695,0.0684261989
696,0.0586510229
697,0.0586510229
698,0.0488758516
699,0.0684261989
700,0.0684261989
701,0.0586510229
702,0.0488758516
703,0.0586510229
704,0.0488758516
705,0.0391006832
706,0.0293255119
707,0.0488758516
708,0.0391006832
709,0.0488758516
710,0.0586510229
711,0.0684261989
712,0.0586510229
713,0.0488758516
714,0.0488758516
715,0.0391006832
716,0.0391006832
717,0.0488758516
718,0.0488758516
719,0.0586510229
720,0.0488758516
721,0.0488758516
722,0.0488758516
723,0.0488758516
724,0.0586510229
725,0.0684261989
726,0.0586510229
727,0.0782013654
728,0.0684261989
729,0.0684261989
730,0.0684261989
731,0.0684261989
732,0.0684261989
733,0.0684261989
734,0.0684261989
735,0.0782013654
736,0.0586510229
737,0.0684261989
738,0.0684261989
739,0.0684261989
740,0.0684261989
741,0.0586510229
742,0.0684261989
743,0.0684261989
744,0.0586510229
745,0.0586510229
746,0.0488758516
747,0.0488758516
748,0.0586510229
749,0.0684261989
750,0.0586510229
751,0.0488758516
752,0.0488758516
753,0.0488758516
754,0.0488758516
755,0.0391006832
756,0.0586510229
757,0.0488758516
758,0.0488758516
759,0.0488758516
760,0.0488758516
761,0.0391006832
762,0.0586510229
763,0.0684261989
764,0.0684261989
765,0.0586510229
766,0.0488758516
767,0.0391006832
768,0.0391006832
769,0.0391006832
770,0.0391006832
771,0.0391006832
772,0.0293255119
773,0.0488758516
774,0.0586510229
775,0.0586510229
776,0.0488758516
777,0.0391006832
778,0.0488758516
779,0.0391006832
780,0.0391006832
781,0.0391006832
782,0.0293255119
783,0.0293255119
784,0.0293255119
785,0.0488758516
786,0.0391006832
787,0.0488758516
788,0.0391006832
789,0.0293255119
790,0.0293255119
791,0.0293255119
792,0.0293255119
793,0.0293255119
794,0.0293255119
795,0.0293255119
796,0.0195503416
797,0.0195503416
798,0.0293255119
799,0.0293255119
800,0.0293255119
801,0.0293255119
802,0.0195503416
803,0.0293255119
804,0.0195503416
805,0.0195503416
806,0.0293255119
807,0.0195503416
808,0.0293255119
809,0.0195503416
810,0.0195503416
811,0.0391006832
812,0.0293255119
813,0.0293255119
814,0.0391006832
815,0.0293255119
816,0.0293255119
817,0.0293255119
818,0.0293255119
819,0.0293255119
820,0.0195503416
821,0.0293255119
822,0.0293255119
823,0.0195503416
824,0.0293255119
825,0.0293255119
826,0.0293255119
827,0.0195503416
828,0.0195503416
829,0.0195503416
830,0.0195503416
831,0.0195503416
832,0.0293255119
833,0.0293255119
834,0.0293255119
835,0.0195503416
836,0.0293255119
837,0.0195503416
838,0.0195503416
839,0.0293255119
840,0.0195503416
841,0.0293255119
842,0.0293255119
843,0.0293255119
844,0.0293255119
845,0.0195503416
846,0.0195503416
847,0.0195503416
848,0.0195503416
849,0.0293255119
850,0.0293255119
851,0.0195503416
852,0.0293255119
853,0.0293255119
854,0.0293255119
855,0.0293255119
856,0.0293255119
857,0.0293255119
858,0.0391006832
859,0.0293255119
860,0.0293255119
861,0.0293255119
862,0.0293255119
863,0.0293255119
864,0.0293255119
865,0.0293255119
866,0.0293255119
867,0.0293255119
868,0.0293255119
869,0.0293255119
870,0.0293255119
871,0.0195503416
872,0.0195503416
873,0.0195503416
874,0.0195503416
875,0.0195503416
876,0.0195503416
877,0.0195503416
878,0.0195503416
879,0.0195503416
880,0.0195503416
881,0.0195503416
882,0.0195503416
883,0.0195503416
884,0.0097751703
885,0.0097751703
886,0.0195503416
887,0.0195503416
888,0.0195503416
889,0.0195503416
890,0.0195503416
891,0.0195503416
892,0.0293255119
893,0.0293255119
894,0.0293255119
895,0.0488758516
896,0.0391006832
897,0.0293255119
898,0.0293255119
899,0.0293255119
900,0.0391006832
901,0.0391006832
902,0.0293255119
903,0.0293255119
904,0.0293255119
905,0.0391006832
906,0.0391006832
907,0.0293255119
908,0.0293255119
909,0.0293255119
910,0.0293255119
911,0.0195503416
912,0.0195503416
913,0.0195503416
914,0.0195503416
915,0.0195503416
916,0.0195503416
917,0.0293255119
918,0.0195503416
919,0.0195503416
920,0.0195503416
921,0.0195503416
922,0.0195503416
923,0.0195503416
924,0.0195503416
925,0.0195503416
926,0.0195503416
927,0.0195503416
928,0.0195503416
929,0.0195503416
930,0.0195503416
931,0.0293255119
932,0.0293255119
933,0.0293255119
934,0.0195503416
935,0.0195503416
936,0.0195503416
937,0.0195503416
938,0.0195503416
939,0.0195503416
940,0.0195503416
941,0.0293255119
942,0.0195503416
943,0.0195503416
944,0.0293255119
945,0.0195503416
946,0.0195503416
947,0.0195503416
948,0.0195503416
949,0.0195503416
950,0.0195503416
951,0.0293255119
952,0.0195503416
953,0.0195503416
954,0.0195503416
955,0.0195503416
956,0.0195503416
957,0.0195503416
958,0.0195503416
959,0.0195503416
960,0.0195503416
961,0.0195503416
962,0.0195503416
963,0.0195503416
964,0.0195503416
965,0.0195503416
966,0.0195503416
967,0.0195503416
968,0.0195503416
969,0.0195503416
970,0.0195503416
971,0.0195503416
972,0.0195503416
973,0.0195503416
974,0.0195503416
975,0.0195503416
976,0.0195503416
977,0.0195503416
978,0.0195503416
979,0.0097751703
980,0.0097751703
981,0.0097751703
982,0.0097751703
983,0.0097751703
984,0.0195503416
985,0.0097751703
986,0.0097751703
987,0.0097751703
988,0.0195503416
989,0.0195503416
990,0.0195503416
991,0.0195503416
992,0.0293255119
993,0.0293255119
994,0.0293255119
995,0.0293255119
996,0.0293255119
997,0.0195503416
998,0.0195503416
999,0.0195503416
1000,0.0293255119
1001,0.6158357620
1002,0.4985337257
1003,0.4105571746
1004,0.3323558330
1005,0.2834799575
1006,0.2248289346
1007,0.1857282543
1008,0.1564027309
1009,0.1466275596
1010,0.1270772218
1011,0.1075268864
1012,0.0879765415
1013,0.0879765415
1014,0.0782013654
1015,0.0782013654
1016,0.0879765415
1017,0.0782013654
1018,0.0782013654
1019,0.0782013654
1020,0.0684261989
1021,0.0586510229
1022,0.0586510229
1023,0.0586510229
1024,0.0586510229
1025,0.0488758516
1026,0.0488758516
1027,0.0488758516
1028,0.0586510229
1029,0.0488758516
1030,0.0391006832
1031,0.0391006832
1032,0.0391006832
1033,0.0391006832
1034,0.0586510229
1035,0.0391006832
1036,0.0391006832
1037,0.0293255119
1038,0.0293255119
1039,0.0391006832
1040,0.0391006832
1041,0.0391006832
1042,0.0391006832
1043,0.0391006832
1044,0.0391006832
1045,0.0391006832
1046,0.0391006832
1047,0.0293255119
1048,0.0195503416
1049,0.0195503416
1050,0.0293255119
1051,0.0195503416
1052,0.0293255119
1053,0.0293255119
1054,0.0195503416
1055,0.0293255119
1056,0.0293255119
1057,0.0293255119
1058,0.0293255119
1059,0.0293255119
1060,0.0293255119
1061,0.0195503416
1062,0.0195503416
1063,0.0195503416
1064,0.0195503416
1065,0.0293255119
1066,0.0293255119
1067,0.0293255119
1068,0.0293255119
1069,0.0293255119
1070,0.0391006832
1071,0.0488758516
1072,0.0488758516
1073,0.0488758516
1074,0.0488758516
1075,0.0684261989
1076,0.0684261989
1077,0.0782013654
1078,0.0782013654
1079,0.0782013654
1080,0.0782013654
1081,0.0977517032
1082,0.1075268864
1083,0.1564027309
1084,0.1661779165
1085,0.2150537729
1086,0.1955034160
1087,0.1759530782
1088,0.1759530782
1089,0.1661779165
1090,0.1661779165
1091,0.1466275596
1092,0.1661779165
1093,0.1759530782
1094,0.1661779165
1095,0.1759530782
1096,0.1661779165
1097,0.1857282543
1098,0.1857282543
1099,0.1857282543
1100,0.1759530782
1101,0.1759530782
1102,0.1857282543
1103,0.1955034160
1104,0.1759530782
1105,0.1661779165
1106,0.1759530782
1107,0.1661779165
1108,0.1661779165
1109,0.1368523955
1110,0.1270772218
1111,0.1173020482
1112,0.1075268864
1113,0.1075268864
1114,0.1075268864
1115,0.0977517032
1116,0.0879765415
1117,0.0977517032
1118,0.0977517032
1119,0.0879765415
1120,0.0879765415
1121,0.0977517032
1122,0.0879765415
1123,0.0879765415
1124,0.0879765415
1125,0.0879765415
1126,0.0879765415
1127,0.0684261989
1128,0.0684261989
1129,0.0684261989
1130,0.0586510229
1131,0.0586510229
1132,0.0488758516
1133,0.0488758516
1134,0.0488758516
1135,0.0488758516
1136,0.0488758516
1137,0.0391006832
1138,0.0391006832
1139,0.0391006832
1140,0.0391006832
1141,0.0391006832
1142,0.0391006832
1143,0.0391006832
1144,0.0391006832
1145,0.0391006832
1146,0.0586510229
1147,0.0488758516
1148,0.0488758516
1149,0.0586510229
1150,0.0586510229
1151,0.0488758516
1152,0.0391006832
1153,0.0391006832
1154,0.0391006832
1155,0.0391006832
1156,0.0391006832
1157,0.0391006832
1158,0.0293255119
1159,0.0293255119
1160,0.0391006832
1161,0.0293255119
1162,0.0293255119
1163,0.0391006832
1164,0.0293255119
1165,0.0293255119
1166,0.0293255119
1167,0.0195503416
1168,0.0195503416
1169,0.0195503416
1170,0.0293255119
1171,0.0293255119
1172,0.0293255119
1173,0.0293255119
1174,0.0293255119
1175,0.0391006832
1176,0.0391006832
1177,0.0488758516
1178,0.0488758516
1179,0.0488758516
1180,0.0586510229
1181,0.0586510229
1182,0.0782013654
1183,0.0782013654
1184,0.0879765415
1185,0.0879765415
1186,0.0879765415
1187,0.0879765415
1188,0.1075268864
1189,0.1368523955
1190,0.1368523955
1191,0.1270772218
1192,0.1466275596
1193,0.1564027309
1194,0.1564027309
1195,0.1368523955
1196,0.1466275596
1197,0.1661779165
1198,0.1857282543
1199,0.1857282543
1200,0.1759530782
1201,0.1955034160
1202,0.1661779165
1203,0.1564027309
1204,0.1368523955
1205,0.1173020482
1206,0.1075268864
1207,0.0977517032
1208,0.0879765415
1209,0.0782013654
1210,0.0782013654
1211,0.0879765415
1212,0.0684261989
1213,0.0684261989
1214,0.0684261989
1215,0.0586510229
1216,0.0586510229
1217,0.0586510229
1218,0.0488758516
1219,0.0488758516
1220,0.0488758516
1221,0.0391006832
1222,0.0391006832
1223,0.0586510229
1224,0.0488758516
1225,0.0391006832
1226,0.0391006832
1227,0.0293255119
1228,0.0293255119
1229,0.0391006832
1230,0.0391006832
1231,0.0391006832
1232,0.0293255119
1233,0.0293255119
1234,0.0293255119
1235,0.0293255119
1236,0.0293255119
1237,0.0293255119
1238,0.0293255119
1239,0.0195503416
1240,0.0195503416
1241,0.0293255119
1242,0.0195503416
1243,0.0293255119
1244,0.0293255119
1245,0.0293255119
1246,0.0195503416
1247,0.0195503416
1248,0.0195503416
1249,0.0293255119
1250,0.0195503416
1251,0.0195503416
1252,0.0293255119
1253,0.0293255119
1254,0.0293255119
1255,0.0293255119
1256,0.0293255119
1257,0.0195503416
1258,0.0293255119
1259,0.0293255119
1260,0.0293255119
1261,0.0293255119
1262,0.0195503416
1263,0.0195503416
1264,0.0195503416
1265,0.0195503416
1266,0.0195503416
1267,0.0195503416
1268,0.0097751703
1269,0.0195503416
1270,0.0195503416
1271,0.0195503416
1272,0.0293255119
1273,0.0293255119
1274,0.0391006832
1275,0.0293255119
1276,0.0391006832
1277,0.0391006832
1278,0.0488758516
1279,0.0684261989
1280,0.0586510229
1281,0.0684261989
1282,0.0879765415
1283,0.1075268864
1284,0.0977517032
1285,0.0977517032
1286,0.1173020482
1287,0.1173020482
1288,0.1173020482
1289,0.1270772218
1290,0.1368523955
1291,0.1564027309
1292,0.1466275596
1293,0.1466275596
1294,0.1661779165
1295,0.1564027309
1296,0.1466275596
1297,0.1759530782
1298,0.1955034160
1299,0.1857282543
1300,0.1955034160
1301,0.1955034160
1302,0.1955034160
1303,0.2150537729
1304,0.2541544437
1305,0.2248289346
1306,0.2932551193
1307,0.3225806236
1308,0.3421309947
1309,0.2932551193
1310,0.2639296054
1311,0.2346040964
1312,0.2052785873
1313,0.2248289346
1314,0.1955034160
1315,0.1661779165
1316,0.1661779165
1317,0.1466275596
1318,0.1564027309
1319,0.1661779165
1320,0.1466275596
1321,0.1466275596
1322,0.1270772218
1323,0.1466275596
1324,0.1270772218
1325,0.1270772218
1326,0.1173020482
1327,0.1075268864
1328,0.1270772218
1329,0.1466275596
1330,0.1270772218
1331,0.1075268864
1332,0.1075268864
1333,0.1173020482
1334,0.1368523955
1335,0.1173020482
1336,0.1270772218
1337,0.1661779165
1338,0.1466275596
1339,0.1173020482
1340,0.0977517032
1341,0.1075268864
1342,0.1173020482
1343,0.0977517032
1344,0.0879765415
1345,0.0879765415
1346,0.0782013654
1347,0.0586510229
1348,0.0586510229
1349,0.0586510229
1350,0.0586510229
1351,0.0586510229
1352,0.0488758516
1353,0.0586510229
1354,0.0488758516
1355,0.0488758516
1356,0.0391006832
1357,0.0391006832
1358,0.0488758516
1359,0.0782013654
1360,0.0684261989
1361,0.0586510229
1362,0.0586510229
1363,0.0488758516
1364,0.0488758516
1365,0.0586510229
1366,0.0586510229
1367,0.0488758516
1368,0.0488758516
1369,0.0488758516
1370,0.0391006832
1371,0.0391006832
1372,0.0391006832
1373,0.0391006832
1374,0.0293255119
1375,0.0293255119
1376,0.0293255119
1377,0.0195503416
1378,0.0195503416
1379,0.0195503416
1380,0.0293255119
1381,0.0488758516
1382,0.0586510229
1383,0.0586510229
1384,0.0684261989
1385,0.0684261989
1386,0.0782013654
1387,0.0782013654
1388,0.0977517032
1389,0.1075268864
1390,0.1075268864
1391,0.1173020482
1392,0.1270772218
1393,0.1564027309
1394,0.1955034160
1395,0.2248289346
1396,0.2443792819
1397,0.2737047910
1398,0.2639296054
1399,0.2443792819
1400,0.2346040964
1401,0.2346040964
1402,0.2248289346
1403,0.2248289346
1404,0.2346040964
1405,0.2346040964
1406,0.2248289346
1407,0.2150537729
1408,0.2150537729
1409,0.2052785873
1410,0.2150537729
1411,0.1955034160
1412,0.1857282543
1413,0.1661779165
1414,0.1564027309
1415,0.1564027309
1416,0.1564027309
1417,0.1564027309
1418,0.1661779165
1419,0.1466275596
1420,0.1466275596
1421,0.1270772218
1422,0.1270772218
1423,0.1173020482
1424,0.1270772218
1425,0.1368523955
1426,0.1173020482
1427,0.1075268864
1428,0.0977517032
1429,0.0879765415
1430,0.0879765415
1431,0.0782013654
1432,0.0684261989
1433,0.0684261989
1434,0.0586510229
1435,0.0488758516
1436,0.0488758516
1437,0.0391006832
1438,0.0391006832
1439,0.0391006832
1440,0.0391006832
1441,0.0391006832
1442,0.0488758516
1443,0.0488758516
1444,0.0391006832
1445,0.0391006832
1446,0.0391006832
1447,0.0293255119
1448,0.0391006832
1449,0.0293255119
1450,0.0293255119
1451,0.0293255119
1452,0.0293255119
1453,0.0293255119
1454,0.0293255119
1455,0.0195503416
1456,0.0195503416
1457,0.0195503416
1458,0.0195503416
1459,0.0293255119
1460,0.0195503416
1461,0.0293255119
1462,0.0293255119
1463,0.0293255119
1464,0.0293255119
1465,0.0293255119
1466,0.0195503416
1467,0.0293255119
1468,0.0293255119
1469,0.0195503416
1470,0.0195503416
1471,0.0195503416
1472,0.0195503416
1473,0.0195503416
1474,0.0195503416
1475,0.0195503416
1476,0.0195503416
1477,0.0293255119
1478,0.0293255119
1479,0.0293255119
1480,0.0293255119
1481,0.0391006832
1482,0.0293255119
1483,0.0391006832
1484,0.0488758516
1485,0.0488758516
1486,0.0586510229
1487,0.0586510229
1488,0.0684261989
1489,0.0586510229
1490,0.0684261989
1491,0.0684261989
1492,0.0782013654
1493,0.0782013654
1494,0.0782013654
1495,0.0879765415
1496,0.0977517032
1497,0.1075268864
1498,0.0977517032
1499,0.1075268864
1500,0.1075268864
1501,0.1173020482
1502,0.1075268864
1503,0.1075268864
1504,0.0977517032
1505,0.0879765415
1506,0.0977517032
1507,0.0977517032
1508,0.1368523955
1509,0.1270772218
1510,0.1173020482
1511,0.1368523955
1512,0.1075268864
1513,0.1075268864
1514,0.0879765415
1515,0.0782013654
1516,0.0879765415
1517,0.0879765415
1518,0.0977517032
1519,0.0879765415
1520,0.0782013654
1521,0.0782013654
1522,0.0782013654
1523,0.0782013654
1524,0.0782013654
1525,0.0684261989
1526,0.0684261989
1527,0.0586510229
1528,0.0684261989
1529,0.0684261989
1530,0.0684261989
1531,0.0586510229
1532,0.0586510229
1533,0.0782013654
1534,0.0782013654
1535,0.0782013654
1536,0.0782013654
1537,0.0782013654
1538,0.0782013654
1539,0.0684261989
1540,0.0684261989
1541,0.0586510229
1542,0.0488758516
1543,0.0488758516
1544,0.0488758516
1545,0.0488758516
1546,0.0391006832
1547,0.0391006832
1548,0.0391006832
1549,0.0488758516
1550,0.0391006832
1551,0.0293255119
1552,0.0488758516
1553,0.0293255119
1554,0.0293255119
1555,0.0391006832
1556,0.0391006832
1557,0.0391006832
1558,0.0586510229
1559,0.0586510229
1560,0.0488758516
1561,0.0586510229
1562,0.0488758516
1563,0.0488758516
1564,0.0391006832
1565,0.0391006832
1566,0.0391006832
1567,0.0391006832
1568,0.0293255119
1569,0.0293255119
1570,0.0195503416
1571,0.0293255119
1572,0.0293255119
1573,0.0293255119
1574,0.0293255119
1575,0.0293255119
1576,0.0293255119
1577,0.0293255119
1578,0.0293255119
1579,0.0488758516
1580,0.0488758516
1581,0.0488758516
1582,0.0488758516
1583,0.0586510229
1584,0.0684261989
1585,0.0782013654
1586,0.0782013654
1587,0.0684261989
1588,0.0782013654
1589,0.0782013654
1590,0.0879765415
1591,0.0879765415
1592,0.0879765415
1593,0.0879765415
1594,0.1075268864
1595,0.1270772218
1596,0.1173020482
1597,0.1270772218
1598,0.1270772218
1599,0.1173020482
1600,0.1075268864
1601,0.1270772218
1602,0.1173020482
1603,0.0977517032
1604,0.0879765415
1605,0.1075268864
1606,0.1075268864
1607,0.1075268864
1608,0.0977517032
1609,0.0977517032
1610,0.0782013654
1611,0.0879765415
1612,0.0782013654
1613,0.0684261989
1614,0.0782013654
1615,0.0684261989
1616,0.0782013654
1617,0.0782013654
1618,0.0684261989
1619,0.0684261989
1620,0.0684261989
1621,0.0586510229
1622,0.0488758516
1623,0.0488758516
1624,0.0488758516
1625,0.0391006832
1626,0.0391006832
1627,0.0488758516
1628,0.0488758516
1629,0.0488758516
1630,0.0488758516
1631,0.0488758516
1632,0.0391006832
1633,0.0391006832
1634,0.0391006832
1635,0.0488758516
1636,0.0488758516
1637,0.0391006832
1638,0.0391006832
1639,0.0391006832
1640,0.0391006832
1641,0.0293255119
1642,0.0293255119
1643,0.0293255119
1644,0.0195503416
1645,0.0195503416
1646,0.0097751703
1647,0.0195503416
1648,0.0195503416
1649,0.0195503416
1650,0.0097751703
1651,0.0195503416
1652,0.0293255119
1653,0.0293255119
1654,0.0293255119
1655,0.0195503416
1656,0.0293255119
1657,0.0195503416
1658,0.0293255119
1659,0.0195503416
1660,0.0195503416
1661,0.0293255119
1662,0.0195503416
1663,0.0195503416
1664,0.0195503416
1665,0.0097751703
1666,0.0195503416
1667,0.0195503416
1668,0.0195503416
1669,0.0195503416
1670,0.0195503416
1671,0.0195503416
1672,0.0195503416
1673,0.0097751703
1674,0.0097751703
1675,0.0195503416
1676,0.0097751703
1677,0.0097751703
1678,0.0097751703
1679,0.0097751703
1680,0.0097751703
1681,0.0097751703
1682,0.0000000000
1683,0.0000000000
1684,0.0097751703
1685,0.0000000000
1686,0.0000000000
1687,0.0000000000
1688,0.0097751703
1689,0.0000000000
1690,0.0097751703
1691,0.0097751703
1692,0.0195503416
1693,0.0195503416
1694,0.0293255119
1695,0.0391006832
1696,0.0488758516
1697,0.0488758516
1698,0.0488758516
1699,0.0488758516
1700,0.0586510229
1701,0.0684261989
1702,0.0684261989
1703,0.0684261989
1704,0.0684261989
1705,0.0586510229
1706,0.0586510229
1707,0.0782013654
1708,0.0977517032
1709,0.1173020482
1710,0.1173020482
1711,0.1173020482
1712,0.1368523955
1713,0.1759530782
1714,0.1955034160
1715,0.1759530782
1716,0.1857282543
1717,0.2150537729
1718,0.1955034160
1719,0.1857282543
1720,0.2052785873
1721,0.2052785873
1722,0.1857282543
1723,0.1759530782
1724,0.1857282543
1725,0.1857282543
1726,0.1857282543
1727,0.2052785873
1728,0.2346040964
1729,0.2052785873
1730,0.1857282543
1731,0.1857282543
1732,0.1661779165
1733,0.1564027309
1734,0.1466275596
1735,0.1564027309
1736,0.1368523955
1737,0.1270772218
1738,0.1270772218
1739,0.1564027309
1740,0.1466275596
1741,0.1368523955
1742,0.1270772218
1743,0.1270772218
1744,0.1075268864
1745,0.0977517032
1746,0.0782013654
1747,0.0684261989
1748,0.0684261989
1749,0.0782013654
1750,0.0586510229
1751,0.0586510229
1752,0.0488758516
1753,0.0391006832
1754,0.0391006832
1755,0.0488758516
1756,0.0488758516
1757,0.0488758516
1758,0.0391006832
1759,0.0586510229
1760,0.0488758516
1761,0.0391006832
1762,0.0391006832
1763,0.0293255119
1764,0.0391006832
1765,0.0391006832
1766,0.0293255119
1767,0.0293255119
1768,0.0293255119
1769,0.0293255119
1770,0.0293255119
1771,0.0195503416
1772,0.0195503416
1773,0.0293255119
1774,0.0293255119
1775,0.0293255119
1776,0.0391006832
1777,0.0293255119
1778,0.0195503416
1779,0.0195503416
1780,0.0293255119
1781,0.0391006832
1782,0.0391006832
1783,0.0391006832
1784,0.0293255119
1785,0.0293255119
1786,0.0293255119
1787,0.0293255119
1788,0.0293255119
1789,0.0293255119
1790,0.0293255119
1791,0.0195503416
1792,0.0195503416
1793,0.0391006832
1794,0.0391006832
1795,0.0391006832
1796,0.0391006832
1797,0.0488758516
1798,0.0488758516
1799,0.0586510229
1800,0.0684261989
1801,0.0684261989
1802,0.0586510229
1803,0.0586510229
1804,0.0586510229
1805,0.0586510229
1806,0.0488758516
1807,0.0586510229
1808,0.0684261989
1809,0.0684261989
1810,0.0879765415
1811,0.1075268864
1812,0.1270772218
1813,0.1368523955
1814,0.1466275596
1815,0.2052785873
1816,0.2248289346
1817,0.2443792819
1818,0.2639296054
1819,0.2248289346
1820,0.2052785873
1821,0.1955034160
1822,0.1759530782
1823,0.1759530782
1824,0.1857282543
1825,0.1759530782
1826,0.1759530782
1827,0.1661779165
1828,0.1759530782
1829,0.1857282543
1830,0.1759530782
1831,0.1564027309
1832,0.1466275596
1833,0.1368523955
1834,0.1270772218
1835,0.1173020482
1836,0.1173020482
1837,0.1270772218
1838,0.1368523955
1839,0.1270772218
1840,0.1270772218
1841,0.1173020482
1842,0.0977517032
1843,0.1075268864
1844,0.1368523955
1845,0.1173020482
1846,0.1075268864
1847,0.0977517032
1848,0.1075268864
1849,0.0977517032
1850,0.0977517032
1851,0.0977517032
1852,0.0977517032
1853,0.1075268864
1854,0.1075268864
1855,0.0977517032
1856,0.0879765415
1857,0.0879765415
1858,0.0879765415
1859,0.0879765415
1860,0.0782013654
1861,0.0782013654
1862,0.0782013654
1863,0.0782013654
1864,0.0782013654
1865,0.0684261989
1866,0.0586510229
1867,0.0586510229
1868,0.0586510229
1869,0.0488758516
1870,0.0488758516
1871,0.0488758516
1872,0.0586510229
1873,0.0488758516
1874,0.0488758516
1875,0.0391006832
1876,0.0391006832
1877,0.0391006832
1878,0.0391006832
1879,0.0293255119
1880,0.0293255119
1881,0.0293255119
1882,0.0293255119
1883,0.0391006832
1884,0.0391006832
1885,0.0391006832
1886,0.0586510229
1887,0.0684261989
1888,0.0586510229
1889,0.0586510229
1890,0.0488758516
1891,0.0391006832
1892,0.0488758516
1893,0.0391006832
1894,0.0391006832
1895,0.0293255119
1896,0.0293255119
1897,0.0195503416
1898,0.0293255119
1899,0.0293255119
1900,0.0293255119
1901,0.0391006832
1902,0.0293255119
1903,0.0293255119
1904,0.0293255119
1905,0.0293255119
1906,0.0293255119
1907,0.0195503416
1908,0.0195503416
1909,0.0293255119
1910,0.0195503416
1911,0.0195503416
1912,0.0293255119
1913,0.0293255119
1914,0.0293255119
1915,0.0293255119
1916,0.0293255119
1917,0.0391006832
1918,0.0391006832
1919,0.0488758516
1920,0.0488758516
1921,0.0488758516
1922,0.0684261989
1923,0.0586510229
1924,0.0684261989
1925,0.0684261989
1926,0.0586510229
1927,0.0684261989
1928,0.0782013654
1929,0.0782013654
1930,0.0782013654
1931,0.0782013654
1932,0.0782013654
1933,0.0782013654
1934,0.0782013654
1935,0.0879765415
1936,0.1075268864
1937,0.1564027309
1938,0.1857282543
1939,0.1857282543
1940,0.1955034160
1941,0.1955034160
1942,0.2052785873
1943,0.1857282543
1944,0.1759530782
1945,0.1759530782
1946,0.2443792819
1947,0.2541544437
1948,0.2737047910
1949,0.2639296054
1950,0.2346040964
1951,0.2150537729
1952,0.2052785873
1953,0.1955034160
1954,0.2150537729
1955,0.2052785873
1956,0.1857282543
1957,0.1564027309
1958,0.1661779165
1959,0.1564027309
1960,0.1466275596
1961,0.1661779165
1962,0.1857282543
1963,0.1759530782
1964,0.1857282543
1965,0.1857282543
1966,0.1759530782
1967,0.1466275596
1968,0.1368523955
1969,0.1368523955
1970,0.1368523955
1971,0.1270772218
1972,0.1173020482
1973,0.1075268864
1974,0.1075268864
1975,0.0977517032
1976,0.0782013654
1977,0.0782013654
1978,0.0684261989
1979,0.0782013654
1980,0.0684261989
1981,0.0586510229
1982,0.0684261989
1983,0.0586510229
1984,0.0586510229
1985,0.0586510229
1986,0.0586510229
1987,0.0488758516
1988,0.0684261989
1989,0.0684261989
1990,0.0684261989
1991,0.0586510229
1992,0.0586510229
1993,0.0586510229
1994,0.0782013654
1995,0.0782013654
1996,0.0684261989
1997,0.0586510229
1998,0.0488758516
1999,0.0488758516
2000,0.0684261989
2001,1.7399804592
2002,1.3685239553
2003,1.0654937028
2004,0.8308895111
2005,0.6549364089
2006,0.5083088874
2007,0.4007820129
2008,0.3128054618
2009,0.2541544437
2010,0.1857282543
2011,0.1466275596
2012,0.1173020482
2013,0.0977517032
2014,0.0684261989
2015,0.0488758516
2016,0.0391006832
2017,0.0293255119
2018,0.0195503416
2019,0.0195503416
2020,0.0097751703
2021,0.0000000000
2022,0.0000000000
2023,0.0000000000
2024,0.0000000000
2025,0.0000000000
2026,0.0000000000
2027,0.0000000000
2028,0.0000000000
2029,0.0000000000
2030,0.0000000000
2031,0.0000000000
2032,0.0000000000
2033,0.0000000000
2034,0.0000000000
2035,0.0000000000
2036,0.0000000000
2037,0.0000000000
2038,0.0000000000
2039,0.0000000000
2040,0.0000000000
2041,0.0000000000
2042,0.0000000000
2043,0.0000000000
2044,0.0000000000
2045,0.0000000000
2046,0.0000000000
2047,0.0000000000
2048,0.0000000000
2049,0.0000000000
2050,0.0000000000
2051,0.0000000000
2052,0.0000000000
2053,0.0000000000
2054,0.0000000000
2055,0.0000000000
2056,0.0000000000
2057,0.0000000000
2058,0.0000000000
2059,0.0000000000
2060,0.0000000000
2061,0.0000000000
2062,0.0000000000
2063,0.0000000000
2064,0.0000000000
2065,0.0000000000
2066,0.0000000000
2067,0.0000000000
2068,0.0000000000
2069,0.0000000000
2070,0.0000000000
2071,0.0000000000
2072,0.0000000000
2073,0.0000000000
2074,0.0000000000
2075,0.0000000000
2076,0.0000000000
2077,0.0000000000
2078,0.0000000000
2079,0.0000000000
2080,0.0000000000
2081,0.0000000000
2082,0.0000000000
2083,0.0000000000
2084,0.0000000000
2085,0.0000000000
2086,0.0000000000
2087,0.0000000000
2088,0.0000000000
2089,0.0000000000
2090,0.0000000000
2091,0.0000000000
2092,0.0000000000
2093,0.0000000000
2094,0.0000000000
2095,0.0000000000
2096,0.0000000000
2097,0.0000000000
2098,0.0000000000
2099,0.0000000000
2100,0.0000000000
2101,0.0000000000
2102,0.0000000000
2103,0.0000000000
2104,0.0000000000
2105,0.0000000000
2106,0.0000000000
2107,0.0000000000
2108,0.0000000000
2109,0.0000000000
2110,0.0000000000
2111,0.0000000000
2112,0.0000000000
2113,0.0000000000
2114,0.0000000000
2115,0.0000000000
2116,0.0000000000
2117,0.0000000000
2118,0.0000000000
2119,0.0000000000
2120,0.0000000000
2121,0.0000000000
2122,0.0000000000
2123,0.0000000000
2124,0.0000000000
2125,0.0000000000
2126,0.0000000000
2127,0.0000000000
2128,0.0000000000
2129,0.0000000000
2130,0.0000000000
2131,0.0000000000
2132,0.0000000000
2133,0.0000000000
2134,0.0000000000
2135,0.0000000000
2136,0.0000000000
2137,0.0000000000
2138,0.0000000000
2139,0.0000000000
2140,0.0000000000
2141,0.0000000000
2142,0.0000000000
2143,0.0000000000
2144,0.0000000000
2145,0.0000000000
2146,0.0000000000
2147,0.0000000000
2148,0.0000000000
2149,0.0000000000
2150,0.0000000000
2151,0.0000000000
2152,0.0000000000
2153,0.0000000000
2154,0.0000000000
2155,0.0000000000
2156,0.0000000000
2157,0.0000000000
2158,0.0000000000
2159,0.0000000000
2160,0.0000000000
2161,0.0000000000
2162,0.0000000000
2163,0.0000000000
2164,0.0000000000
2165,0.0000000000
2166,0.0000000000
2167,0.0000000000
2168,0.0000000000
2169,0.0000000000
2170,0.0000000000
2171,0.0000000000
2172,0.0000000000
2173,0.0000000000
2174,0.0000000000
2175,0.0000000000
2176,0.0000000000
2177,0.0000000000
2178,0.0000000000
2179,0.0000000000
2180,0.0000000000
2181,0.0000000000
2182,0.0000000000
2183,0.0000000000
2184,0.0000000000
2185,0.0000000000
2186,0.0000000000
2187,0.0000000000
2188,0.0000000000
2189,0.0000000000
2190,0.0000000000
2191,0.0000000000
2192,0.0000000000
2193,0.0000000000
2194,0.0000000000
2195,0.0000000000
2196,0.0000000000
2197,0.0000000000
2198,0.0000000000
2199,0.0000000000
2200,0.0000000000
2201,0.0000000000
2202,0.0000000000
2203,0.0000000000
2204,0.0000000000
2205,0.0000000000
2206,0.0000000000
2207,0.0000000000
2208,0.0000000000
2209,0.0000000000
2210,0.0000000000
2211,0.0000000000
2212,0.0000000000
2213,0.0000000000
2214,0.0000000000
2215,0.0000000000
2216,0.0000000000
2217,0.0000000000
2218,0.0000000000
2219,0.0000000000
2220,0.0000000000
2221,0.0000000000
2222,0.0000000000
2223,0.0000000000
2224,0.0000000000
2225,0.0000000000
2226,0.0000000000
2227,0.0000000000
2228,0.0000000000
2229,0.0000000000
2230,0.0000000000
2231,0.0000000000
2232,0.0000000000
2233,0.0000000000
2234,0.0000000000
2235,0.0000000000
2236,0.0000000000
2237,0.0000000000
2238,0.0000000000
2239,0.0000000000
2240,0.0000000000
2241,0.0000000000
2242,0.0000000000
2243,0.0000000000
2244,0.0000000000
2245,0.0000000000
2246,0.0000000000
2247,0.0000000000
2248,0.0000000000
2249,0.0000000000
2250,0.0000000000
2251,0.0000000000
2252,0.0000000000
2253,0.0000000000
2254,0.0000000000
2255,0.0000000000
2256,0.0000000000
2257,0.0000000000
2258,0.0000000000
2259,0.0000000000
2260,0.0000000000
2261,0.0000000000
2262,0.0000000000
2263,0.0000000000
2264,0.0000000000
2265,0.0000000000
2266,0.0000000000
2267,0.0000000000
2268,0.0000000000
2269,0.0000000000
2270,0.0000000000
2271,0.0000000000
2272,0.0000000000
2273,0.0000000000
2274,0.0000000000
2275,0.0000000000
2276,0.0000000000
2277,0.0000000000
2278,0.0000000000
2279,0.0000000000
2280,0.0000000000
2281,0.0000000000
2282,0.0000000000
2283,0.0000000000
2284,0.0000000000
2285,0.0000000000
2286,0.0000000000
2287,0.0000000000
2288,0.0000000000
2289,0.0000000000
2290,0.0000000000
2291,0.0000000000
2292,0.0000000000
2293,0.0000000000
2294,0.0000000000
2295,0.0000000000
2296,0.0000000000
2297,0.0000000000
2298,0.0000000000
2299,0.0000000000
2300,0.0000000000
2301,0.0000000000
2302,0.0000000000
2303,0.0000000000
2304,0.0000000000
2305,0.0000000000
2306,0.0000000000
2307,0.0000000000
2308,0.0000000000
2309,0.0000000000
2310,0.0000000000
2311,0.0000000000
2312,0.0000000000
2313,0.0000000000
2314,0.0000000000
2315,0.0000000000
2316,0.0000000000
2317,0.0000000000
2318,0.0000000000
2319,0.0000000000
2320,0.0000000000
2321,0.0000000000
2322,0.0000000000
2323,0.0000000000
2324,0.0000000000
2325,0.0000000000
2326,0.0000000000
2327,0.0000000000
2328,0.0000000000
2329,0.0000000000
2330,0.0000000000
2331,0.0000000000
2332,0.0000000000
2333,0.0000000000
2334,0.0000000000
2335,0.0000000000
2336,0.0000000000
2337,0.0000000000
2338,0.0000000000
2339,0.0000000000
2340,0.0000000000
2341,0.0000000000
2342,0.0000000000
2343,0.0000000000
2344,0.0000000000
2345,0.0000000000
2346,0.0000000000
2347,0.0000000000
2348,0.0000000000
2349,0.0000000000
2350,0.0000000000
2351,0.0000000000
2352,0.0000000000
2353,0.0000000000
2354,0.0000000000
2355,0.0000000000
2356,0.0000000000
2357,0.0000000000
2358,0.0000000000
2359,0.0000000000
2360,0.0000000000
2361,0.0000000000
2362,0.0000000000
2363,0.0000000000
2364,0.0000000000
2365,0.0000000000
2366,0.0000000000
2367,0.0000000000
2368,0.0000000000
2369,0.0000000000
2370,0.0000000000
2371,0.0000000000
2372,0.0000000000
2373,0.0000000000
2374,0.0000000000
2375,0.0000000000
2376,0.0000000000
2377,0.0000000000
2378,0.0000000000
2379,0.0000000000
2380,0.0000000000
2381,0.0000000000
2382,0.0000000000
2383,0.0000000000
2384,0.0000000000
2385,0.0000000000
2386,0.0000000000
2387,0.0000000000
2388,0.0000000000
2389,0.0000000000
2390,0.0000000000
2391,0.0000000000
2392,0.0000000000
2393,0.0000000000
2394,0.0000000000
2395,0.0000000000
2396,0.0000000000
2397,0.0000000000
2398,0.0000000000
2399,0.0000000000
2400,0.0000000000
2401,0.0000000000
2402,0.0000000000
2403,0.0000000000
2404,0.0000000000
2405,0.0000000000
2406,0.0000000000
2407,0.0000000000
2408,0.0000000000
2409,0.0000000000
2410,0.0000000000
2411,0.0000000000
2412,0.0000000000
2413,0.0000000000
2414,0.0000000000
2415,0.0000000000
2416,0.0000000000
2417,0.0000000000
2418,0.0000000000
2419,0.0000000000
2420,0.0000000000
2421,0.0000000000
2422,0.0000000000
2423,0.0000000000
2424,0.0000000000
2425,0.0000000000
2426,0.0000000000
2427,0.0000000000
2428,0.0000000000
2429,0.0000000000
2430,0.0000000000
2431,0.0000000000
2432,0.0000000000
2433,0.0000000000
2434,0.0000000000
2435,0.0000000000
2436,0.0000000000
2437,0.0000000000
2438,0.0000000000
2439,0.0000000000
2440,0.0000000000
2441,0.0000000000
2442,0.0000000000
2443,0.0000000000
2444,0.0000000000
2445,0.0000000000
2446,0.0000000000
2447,0.0000000000
2448,0.0000000000
2449,0.0000000000
2450,0.0000000000
2451,0.0000000000
2452,0.0000000000
2453,0.0000000000
2454,0.0000000000
2455,0.0000000000
2456,0.0000000000
2457,0.0000000000
2458,0.0000000000
2459,0.0000000000
2460,0.0000000000
2461,0.0000000000
2462,0.0000000000
2463,0.0000000000
2464,0.0000000000
2465,0.0000000000
2466,0.0000000000
2467,0.0000000000
2468,0.0000000000
2469,0.0000000000
2470,0.0000000000
2471,0.0000000000
2472,0.0000000000
2473,0.0000000000
2474,0.0000000000
2475,0.0000000000
2476,0.0000000000
2477,0.0195503416
2478,0.0000000000
2479,0.0000000000
2480,0.0000000000
2481,0.0000000000
2482,0.0000000000
2483,0.0000000000
2484,0.0000000000
2485,0.0000000000
2486,0.0000000000
2487,0.0000000000
2488,0.0000000000
2489,0.0000000000
2490,0.0000000000
2491,0.0000000000
2492,0.0000000000
2493,0.0000000000
2494,0.0000000000
2495,0.0000000000
2496,0.0000000000
2497,0.0000000000
2498,0.0000000000
2499,0.0000000000
2500,0.0000000000
2501,0.0000000000
2502,0.0000000000
2503,0.0000000000
2504,0.0000000000
2505,0.0000000000
2506,0.0000000000
2507,0.0000000000
2508,0.0000000000
2509,0.0000000000
2510,0.0000000000
2511,0.0000000000
2512,0.0000000000
2513,0.0000000000
2514,0.0000000000
2515,0.0000000000
2516,0.0000000000
2517,0.0000000000
2518,0.0000000000
2519,0.0000000000
2520,0.0000000000
2521,0.0000000000
2522,0.0000000000
2523,0.0000000000
2524,0.0000000000
2525,0.0000000000
2526,0.0000000000
2527,0.0000000000
2528,0.0000000000
2529,0.0000000000
2530,0.0000000000
2531,0.0000000000
2532,0.0000000000
2533,0.0000000000
2534,0.0000000000
2535,0.0000000000
2536,0.0000000000
2537,0.0000000000
2538,0.0000000000
2539,0.0000000000
2540,0.0000000000
2541,0.0000000000
2542,0.0000000000
2543,0.0000000000
2544,0.0000000000
2545,0.0000000000
2546,0.0000000000
2547,0.0000000000
2548,0.0000000000
2549,0.0000000000
2550,0.0000000000
2551,0.0000000000
2552,0.0000000000
2553,0.0000000000
2554,0.0000000000
2555,0.0000000000
2556,0.0000000000
2557,0.0000000000
2558,0.0000000000
2559,0.0000000000
2560,0.0000000000
2561,0.0000000000
2562,0.0000000000
2563,0.0000000000
2564,0.0000000000
2565,0.0000000000
2566,0.0000000000
2567,0.0000000000
2568,0.0000000000
2569,0.0000000000
2570,0.0000000000
2571,0.0000000000
2572,0.0000000000
2573,0.0000000000
2574,0.0000000000
2575,0.0000000000
2576,0.0000000000
2577,0.0000000000
2578,0.0000000000
2579,0.0000000000
2580,0.0000000000
2581,0.0000000000
2582,0.0000000000
2583,0.0000000000
2584,0.0000000000
2585,0.0000000000
2586,0.0000000000
2587,0.0000000000
2588,0.0000000000
2589,0.0000000000
2590,0.0000000000
2591,0.0000000000
2592,0.0000000000
2593,0.0000000000
2594,0.0000000000
2595,0.0000000000
2596,0.0000000000
2597,0.0000000000
2598,0.0000000000
2599,0.0000000000
2600,0.0000000000
2601,0.0000000000
2602,0.0000000000
2603,0.0000000000
2604,0.0000000000
2605,0.0000000000
2606,0.0000000000
2607,0.0000000000
2608,0.0000000000
2609,0.0000000000
2610,0.0000000000
2611,0.0000000000
2612,0.0000000000
2613,0.0000000000
2614,0.0000000000
2615,0.0000000000
2616,0.0000000000
2617,0.0000000000
2618,0.0000000000
2619,0.0000000000
2620,0.0000000000
2621,0.0000000000
2622,0.0000000000
2623,0.0000000000
2624,0.0000000000
2625,0.0000000000
2626,0.0000000000
2627,0.0000000000
2628,0.0000000000
2629,0.0000000000
2630,0.0000000000
2631,0.0000000000
2632,0.0000000000
2633,0.0000000000
2634,0.0000000000
2635,0.0000000000
2636,0.0000000000
2637,0.0000000000
2638,0.0000000000
2639,0.0000000000
2640,0.0000000000
2641,0.0000000000
2642,0.0000000000
2643,0.0000000000
2644,0.0000000000
2645,0.0000000000
2646,0.0000000000
2647,0.0000000000
2648,0.0000000000
2649,0.0000000000
2650,0.0000000000
2651,0.0000000000
2652,0.0000000000
2653,0.0000000000
2654,0.0000000000
2655,0.0000000000
2656,0.0000000000
2657,0.0000000000
2658,0.0000000000
2659,0.0000000000
2660,0.0000000000
2661,0.0000000000
2662,0.0000000000
2663,0.0000000000
2664,0.0000000000
2665,0.0000000000
2666,0.0000000000
2667,0.0000000000
2668,0.0000000000
2669,0.0000000000
2670,0.0000000000
2671,0.0000000000
2672,0.0000000000
2673,0.0000000000
2674,0.0000000000
2675,0.0000000000
2676,0.0000000000
2677,0.0000000000
2678,0.0000000000
2679,0.0000000000
2680,0.0000000000
2681,0.0000000000
2682,0.0000000000
2683,0.0000000000
2684,0.0000000000
2685,0.0000000000
2686,0.0000000000
2687,0.0000000000
2688,0.0000000000
2689,0.0000000000
2690,0.0000000000
2691,0.0000000000
2692,0.0000000000
2693,0.0000000000
2694,0.0000000000
2695,0.0000000000
2696,0.0000000000
2697,0.0000000000
2698,0.0097751703
2699,0.0000000000
2700,0.0000000000
2701,0.0000000000
2702,0.0000000000
2703,0.0000000000
2704,0.0000000000
2705,0.0000000000
2706,0.0000000000
2707,0.0000000000
2708,0.0000000000
2709,0.0000000000
2710,0.0000000000
2711,0.0000000000
2712,0.0000000000
2713,0.0000000000
2714,0.0000000000
2715,0.0000000000
2716,0.0000000000
2717,0.0000000000
2718,0.0000000000
2719,0.0000000000
2720,0.0000000000
2721,0.0000000000
2722,0.0000000000
2723,0.0000000000
2724,0.0000000000
2725,0.0000000000
2726,0.0000000000
2727,0.0000000000
2728,0.0000000000
2729,0.0000000000
2730,0.0000000000
2731,0.0000000000
2732,0.0000000000
2733,0.0000000000
2734,0.0000000000
2735,0.0000000000
2736,0.0000000000
2737,0.0000000000
2738,0.0000000000
2739,0.0000000000
2740,0.0000000000
2741,0.0000000000
2742,0.0000000000
2743,0.0000000000
2744,0.0000000000
2745,0.0000000000
2746,0.0000000000
2747,0.0000000000
2748,0.0000000000
2749,0.0000000000
2750,0.0000000000
2751,0.0000000000
2752,0.0000000000
2753,0.0000000000
2754,0.0000000000
2755,0.0000000000
2756,0.0000000000
2757,0.0000000000
2758,0.0000000000
2759,0.0000000000
2760,0.0000000000
2761,0.0000000000
2762,0.0000000000
2763,0.0000000000
2764,0.0000000000
2765,0.0000000000
2766,0.0000000000
2767,0.0000000000
2768,0.0000000000
2769,0.0000000000
2770,0.0000000000
2771,0.0000000000
2772,0.0000000000
2773,0.0000000000
2774,0.0000000000
2775,0.0000000000
2776,0.0000000000
2777,0.0000000000
2778,0.0000000000
2779,0.0000000000
2780,0.0000000000
2781,0.0000000000
2782,0.0000000000
2783,0.0000000000
2784,0.0000000000
2785,0.0000000000
2786,0.0000000000
2787,0.0000000000
2788,0.0000000000
2789,0.0000000000
2790,0.0000000000
2791,0.0000000000
2792,0.0000000000
2793,0.0000000000
2794,0.0000000000
2795,0.0000000000
2796,0.0000000000
2797,0.0000000000
2798,0.0000000000
2799,0.0000000000
2800,0.0000000000
2801,0.0000000000
2802,0.0000000000
2803,0.0000000000
2804,0.0000000000
2805,0.0000000000
2806,0.0000000000
2807,0.0000000000
2808,0.0000000000
2809,0.0000000000
2810,0.0000000000
2811,0.0000000000
2812,0.0000000000
2813,0.0000000000
2814,0.0000000000
2815,0.0000000000
2816,0.0000000000
2817,0.0000000000
2818,0.0000000000
2819,0.0000000000
2820,0.0000000000
2821,0.0000000000
2822,0.0000000000
2823,0.0000000000
2824,0.0000000000
2825,0.0000000000
2826,0.0000000000
2827,0.0000000000
2828,0.0000000000
2829,0.0000000000
2830,0.0000000000
2831,0.0000000000
2832,0.0000000000
2833,0.0000000000
2834,0.0000000000
2835,0.0000000000
2836,0.0000000000
2837,0.0000000000
2838,0.0000000000
2839,0.0000000000
2840,0.0000000000
2841,0.0000000000
2842,0.0000000000
2843,0.0000000000
2844,0.0000000000
2845,0.0000000000
2846,0.0000000000
2847,0.0000000000
2848,0.0000000000
2849,0.0000000000
2850,0.0000000000
2851,0.0000000000
2852,0.0000000000
2853,0.0000000000
2854,0.0000000000
2855,0.0000000000
2856,0.0000000000
2857,0.0000000000
2858,0.0000000000
2859,0.0000000000
2860,0.0000000000
2861,0.0000000000
2862,0.0000000000
2863,0.0000000000
2864,0.0000000000
2865,0.0000000000
2866,0.0000000000
2867,0.0000000000
2868,0.0000000000
2869,0.0000000000
2870,0.0000000000
2871,0.0000000000
2872,0.0000000000
2873,0.0000000000
2874,0.0000000000
2875,0.0000000000
2876,0.0000000000
2877,0.0000000000
2878,0.0000000000
2879,0.0000000000
2880,0.0000000000
2881,0.0000000000
2882,0.0000000000
2883,0.0000000000
2884,0.0000000000
2885,0.0000000000
2886,0.0000000000
2887,0.0000000000
2888,0.0000000000
2889,0.0000000000
2890,0.0000000000
2891,0.0000000000
2892,0.0000000000
2893,0.0000000000
2894,0.0000000000
2895,0.0000000000
2896,0.0000000000
2897,0.0000000000
2898,0.0000000000
2899,0.0000000000
2900,0.0000000000
2901,0.0000000000
2902,0.0000000000
2903,0.0000000000
2904,0.0000000000
2905,0.0000000000
2906,0.0000000000
2907,0.0000000000
2908,0.0000000000
2909,0.0000000000
2910,0.0000000000
2911,0.0000000000
2912,0.0000000000
2913,0.0000000000
2914,0.0000000000
2915,0.0000000000
2916,0.0000000000
2917,0.0000000000
2918,0.0000000000
2919,0.0000000000
2920,0.0000000000
2921,0.0000000000
2922,0.0000000000
2923,0.0000000000
2924,0.0000000000
2925,0.0000000000
2926,0.0000000000
2927,0.0000000000
2928,0.0000000000
2929,0.0000000000
2930,0.0000000000
2931,0.0000000000
2932,0.0000000000
2933,0.0000000000
2934,0.0000000000
2935,0.0000000000
2936,0.0000000000
2937,0.0000000000
2938,0.0000000000
2939,0.0000000000
2940,0.0000000000
2941,0.0000000000
2942,0.0000000000
2943,0.0000000000
2944,0.0000000000
2945,0.0000000000
2946,0.0000000000
2947,0.0000000000
2948,0.0000000000
2949,0.0000000000
2950,0.0000000000
2951,0.0000000000
2952,0.0000000000
2953,0.0000000000
2954,0.0000000000
2955,0.0000000000
2956,0.0000000000
2957,0.0000000000
2958,0.0000000000
2959,0.0000000000
2960,0.0000000000
2961,0.0000000000
2962,0.0000000000
2963,0.0000000000
2964,0.0000000000
2965,0.0000000000
2966,0.0000000000
2967,0.0000000000
2968,0.0000000000
2969,0.0000000000
2970,0.0000000000
2971,0.0000000000
2972,0.0000000000
2973,0.0000000000
2974,0.0000000000
2975,0.0000000000
2976,0.0000000000
2977,0.0000000000
2978,0.0000000000
2979,0.0000000000
2980,0.0000000000
2981,0.0000000000
2982,0.0000000000
2983,0.0000000000
2984,0.0000000000
2985,0.0000000000
2986,0.0000000000
2987,0.0000000000
2988,0.0000000000
2989,0.0000000000
2990,0.0000000000
2991,0.0000000000
2992,0.0000000000
2993,0.0000000000
2994,0.0000000000
2995,0.0000000000
2996,0.0000000000
2997,0.0000000000
2998,0.0000000000
2999,0.0000000000
3000,0.0000000000
3001,0.2639296054
3002,0.2443792819
3003,0.2248289346
3004,0.2052785873
3005,0.1955034160
3006,0.1955034160
3007,0.1759530782
3008,0.1661779165
3009,0.1368523955
3010,0.1270772218
3011,0.1466275596
3012,0.1368523955
3013,0.1173020482
3014,0.1466275596
3015,0.1368523955
3016,0.1368523955
3017,0.1173020482
3018,0.1173020482
3019,0.1270772218
3020,0.1173020482
3021,0.1173020482
3022,0.1173020482
3023,0.1270772218
3024,0.1075268864
3025,0.0977517032
3026,0.0879765415
3027,0.0782013654
3028,0.0782013654
3029,0.0782013654
3030,0.0684261989
3031,0.0684261989
3032,0.0782013654
3033,0.0879765415
3034,0.0879765415
3035,0.0782013654
3036,0.0782013654
3037,0.0879765415
3038,0.0782013654
3039,0.0684261989
3040,0.0684261989
3041,0.0684261989
3042,0.0879765415
3043,0.1075268864
3044,0.1270772218
3045,0.1466275596
3046,0.1368523955
3047,0.1270772218
3048,0.1466275596
3049,0.1955034160
3050,0.2150537729
3051,0.3616813421
3052,0.6060606002
3053,0.5474095821
3054,0.5083088874
3055,0.7624633312
3056,0.9090909004
3057,0.9970674514
3058,1.1045943498
3059,1.0166177749
3060,1.0166177749
3061,1.0948191833
3062,1.3098728656
3063,1.1925709247
3064,1.1241446733
3065,1.1241446733
3066,1.0948191833
3067,1.0459432601
3068,1.0459432601
3069,1.5249266624
3070,1.5444769859
3071,1.3782991170
3072,1.1925709247
3073,1.1436949968
3074,1.1730204820
3075,1.1339198350
3076,1.0752688646
3077,0.9481915473
3078,0.8602150917
3079,0.8211143493
3080,0.8602150917
3081,0.7917888641
3082,0.6744868278
3083,0.5865102291
3084,0.5180840492
3085,0.5180840492
3086,0.5669599056
3087,0.5180840492
3088,0.5669599056
3089,0.6353860855
3090,0.6451612472
3091,0.6256109237
3092,0.5571847438
3093,0.4887585639
3094,0.4594330310
3095,0.4203323364
3096,0.4301075458
3097,0.3616813421
3098,0.3519061565
3099,0.3616813421
3100,0.3616813421
3101,0.3519061565
3102,0.3030303001
3103,0.3616813421
3104,0.3128054618
3105,0.3421309947
3106,0.2932551193
3107,0.2541544437
3108,0.2443792819
3109,0.2443792819
3110,0.2248289346
3111,0.2052785873
3112,0.2150537729
3113,0.2248289346
3114,0.2150537729
3115,0.1955034160
3116,0.1955034160
3117,0.2248289346
3118,0.2541544437
3119,0.2346040964
3120,0.2541544437
3121,0.3128054618
3122,0.2834799575
3123,0.2443792819
3124,0.2541544437
3125,0.2541544437
3126,0.2248289346
3127,0.2150537729
3128,0.1955034160
3129,0.1857282543
3130,0.2052785873
3131,0.1857282543
3132,0.1857282543
3133,0.1661779165
3134,0.1857282543
3135,0.1759530782
3136,0.1661779165
3137,0.1564027309
3138,0.1661779165
3139,0.2052785873
3140,0.1759530782
3141,0.1564027309
3142,0.1564027309
3143,0.1466275596
3144,0.1466275596
3145,0.1466275596
3146,0.1368523955
3147,0.1368523955
3148,0.1270772218
3149,0.1564027309
3150,0.1564027309
3151,0.1857282543
3152,0.1857282543
3153,0.1955034160
3154,0.2346040964
3155,0.2150537729
3156,0.2346040964
3157,0.2443792819
3158,0.3030303001
3159,0.2932551193
3160,0.3128054618
3161,0.2834799575
3162,0.3323558330
3163,0.3128054618
3164,0.3421309947
3165,0.3616813421
3166,0.3812316703
3167,0.4398827075
3168,0.4301075458
3169,0.3910068321
3170,0.4007820129
3171,0.4789833545
3172,0.4887585639
3173,0.5571847438
3174,0.5376344203
3175,0.5083088874
3176,0.4594330310
3177,0.4203323364
3178,0.4594330310
3179,0.4887585639
3180,0.5180840492
3181,0.4789833545
3182,0.4398827075
3183,0.4105571746
3184,0.3812316703
3185,0.3421309947
3186,0.3616813421
3187,0.3421309947
3188,0.3323558330
3189,0.3225806236
3190,0.3030303001
3191,0.3128054618
3192,0.4203323364
3193,0.4007820129
3194,0.3519061565
3195,0.3030303001
3196,0.3030303001
3197,0.2834799575
3198,0.2346040964
3199,0.2248289346
3200,0.2248289346
3201,0.2150537729
3202,0.1955034160
3203,0.1955034160
3204,0.1955034160
3205,0.2346040964
3206,0.2443792819
3207,0.2346040964
3208,0.2248289346
3209,0.2248289346
3210,0.2346040964
3211,0.1955034160
3212,0.1759530782
3213,0.1857282543
3214,0.2834799575
3215,0.3225806236
3216,0.3421309947
3217,0.4105571746
3218,0.3714565038
3219,0.3421309947
3220,0.3812316703
3221,0.4007820129
3222,0.4301075458
3223,0.4594330310
3224,0.5669599056
3225,0.6353860855
3226,0.6940371513
3227,0.7624633312
3228,0.7917888641
3229,0.7722384929
3230,0.7722384929
3231,0.8211143493
3232,0.8602150917
3233,1.0557184219
3234,1.1534701585
3235,1.2023460865
3236,1.2316715717
3237,1.1045943498
3238,1.0654937028
3239,0.9872922897
3240,0.8406646728
3241,0.7331378459
3242,0.7429130077
3243,0.6353860855
3244,0.5865102291
3245,0.5180840492
3246,0.4789833545
3247,0.4203323364
3248,0.4105571746
3249,0.3910068321
3250,0.4105571746
3251,0.4105571746
3252,0.3910068321
3253,0.4496578693
3254,0.4301075458
3255,0.4203323364
3256,0.4301075458
3257,0.3812316703
3258,0.3714565038
3259,0.3519061565
3260,0.3519061565
3261,0.3616813421
3262,0.3225806236
3263,0.3030303001
3264,0.2834799575
3265,0.2541544437
3266,0.2541544437
3267,0.2346040964
3268,0.3128054618
3269,0.2932551193
3270,0.2443792819
3271,0.2248289346
3272,0.2150537729
3273,0.2052785873
3274,0.1955034160
3275,0.2052785873
3276,0.2150537729
3277,0.2052785873
3278,0.2052785873
3279,0.2150537729
3280,0.2150537729
3281,0.2639296054
3282,0.3030303001
3283,0.2834799575
3284,0.2834799575
3285,0.2737047910
3286,0.2737047910
3287,0.2737047910
3288,0.2541544437
3289,0.2541544437
3290,0.2541544437
3291,0.2346040964
3292,0.2443792819
3293,0.2541544437
3294,0.2737047910
3295,0.2834799575
3296,0.2834799575
3297,0.2639296054
3298,0.2346040964
3299,0.2248289346
3300,0.2443792819
3301,0.2346040964
3302,0.2052785873
3303,0.2150537729
3304,0.2248289346
3305,0.2248289346
3306,0.2150537729
3307,0.1857282543
3308,0.1759530782
3309,0.1759530782
3310,0.1857282543
3311,0.1759530782
3312,0.2052785873
3313,0.1759530782
3314,0.1564027309
3315,0.1466275596
3316,0.1466275596
3317,0.1661779165
3318,0.1759530782
3319,0.1661779165
3320,0.1759530782
3321,0.2346040964
3322,0.2834799575
3323,0.2834799575
3324,0.2834799575
3325,0.3030303001
3326,0.2932551193
3327,0.3030303001
3328,0.3128054618
3329,0.3421309947
3330,0.4105571746
3331,0.4398827075
3332,0.5180840492
3333,0.5865102291
3334,0.6744868278
3335,0.6940371513
3336,0.7135874748
3337,0.8797654151
3338,0.9090909004
3339,0.9481915473
3340,0.9579667091
3341,0.9970674514
3342,0.8895405769
3343,1.0068426132
3344,1.0850440216
3345,1.0166177749
3346,1.0557184219
3347,1.0166177749
3348,1.0361680984
3349,0.9481915473
3350,0.8504399299
3351,0.8113391876
3352,0.7331378459
3353,0.6744868278
3354,0.6353860855
3355,0.5962854385
3356,0.6353860855
3357,0.6353860855
3358,0.6744868278
3359,0.5865102291
3360,0.5278592109
3361,0.5180840492
3362,0.5180840492
3363,0.4496578693
3364,0.4301075458
3365,0.3910068321
3366,0.4007820129
3367,0.3714565038
3368,0.3714565038
3369,0.3323558330
3370,0.3128054618
3371,0.3323558330
3372,0.3225806236
3373,0.2932551193
3374,0.2639296054
3375,0.2932551193
3376,0.2737047910
3377,0.2443792819
3378,0.2248289346
3379,0.2248289346
3380,0.2541544437
3381,0.2346040964
3382,0.2248289346
3383,0.2541544437
3384,0.2541544437
3385,0.2639296054
3386,0.2834799575
3387,0.2932551193
3388,0.2737047910
3389,0.2346040964
3390,0.2150537729
3391,0.2150537729
3392,0.2443792819
3393,0.3030303001
3394,0.2834799575
3395,0.2443792819
3396,0.2150537729
3397,0.2248289346
3398,0.2052785873
3399,0.1955034160
3400,0.1857282543
3401,0.1661779165
3402,0.2541544437
3403,0.2150537729
3404,0.2150537729
3405,0.2248289346
3406,0.3030303001
3407,0.3030303001
3408,0.2737047910
3409,0.2834799575
3410,0.2737047910
3411,0.2737047910
3412,0.2541544437
3413,0.2346040964
3414,0.2052785873
3415,0.1857282543
3416,0.1759530782
3417,0.1955034160
3418,0.1955034160
3419,0.1759530782
3420,0.1661779165
3421,0.1857282543
3422,0.1857282543
3423,0.1955034160
3424,0.1955034160
3425,0.1955034160
3426,0.1955034160
3427,0.1955034160
3428,0.2052785873
3429,0.2834799575
3430,0.3128054618
3431,0.4007820129
3432,0.4594330310
3433,0.4398827075
3434,0.4887585639
3435,0.4985337257
3436,0.4594330310
3437,0.4985337257
3438,0.5865102291
3439,0.5474095821
3440,0.6060606002
3441,0.6060606002
3442,0.6158357620
3443,0.6549364089
3444,0.7624633312
3445,0.7135874748
3446,0.7624633312
3447,0.8113391876
3448,0.7820136547
3449,0.7233626842
3450,0.7429130077
3451,0.7135874748
3452,0.6451612472
3453,0.6549364089
3454,0.6256109237
3455,0.6549364089
3456,0.6451612472
3457,0.5767350673
3458,0.5278592109
3459,0.4692081928
3460,0.4301075458
3461,0.4105571746
3462,0.4496578693
3463,0.4105571746
3464,0.4398827075
3465,0.4301075458
3466,0.4105571746
3467,0.4985337257
3468,0.4594330310
3469,0.4301075458
3470,0.4007820129
3471,0.4398827075
3472,0.4301075458
3473,0.3812316703
3474,0.3714565038
3475,0.3910068321
3476,0.3519061565
3477,0.3323558330
3478,0.3030303001
3479,0.2737047910
3480,0.3128054618
3481,0.2737047910
3482,0.2737047910
3483,0.2443792819
3484,0.2443792819
3485,0.2639296054
3486,0.2639296054
3487,0.2443792819
3488,0.2346040964
3489,0.2150537729
3490,0.2052785873
3491,0.1955034160
3492,0.1955034160
3493,0.1759530782
3494,0.1955034160
3495,0.2346040964
3496,0.2346040964
3497,0.2150537729
3498,0.2932551193
3499,0.2737047910
3500,0.2541544437
3501,0.2346040964
3502,0.2150537729
3503,0.2443792819
3504,0.2248289346
3505,0.2150537729
3506,0.2541544437
3507,0.2443792819
3508,0.2052785873
3509,0.2443792819
3510,0.2346040964
3511,0.2346040964
3512,0.1955034160
3513,0.2052785873
3514,0.2443792819
3515,0.2443792819
3516,0.2150537729
3517,0.1955034160
3518,0.2052785873
3519,0.1955034160
3520,0.1759530782
3521,0.1661779165
3522,0.1564027309
3523,0.1564027309
3524,0.1466275596
3525,0.1661779165
3526,0.1466275596
3527,0.1270772218
3528,0.1173020482
3529,0.1270772218
3530,0.1368523955
3531,0.1564027309
3532,0.1368523955
3533,0.1270772218
3534,0.1270772218
3535,0.1270772218
3536,0.1270772218
3537,0.1759530782
3538,0.1466275596
3539,0.1368523955
3540,0.1661779165
3541,0.1661779165
3542,0.2052785873
3543,0.2737047910
3544,0.3030303001
3545,0.3030303001
3546,0.3225806236
3547,0.4301075458
3548,0.5571847438
3549,0.6451612472
3550,0.6842619895
3551,0.8993157386
3552,1.0263929367
3553,0.9677418708
3554,0.8797654151
3555,0.9872922897
3556,0.9677418708
3557,1.1827956390
3558,1.1241446733
3559,1.0459432601
3560,1.0557184219
3561,0.9677418708
3562,0.8699902534
3563,0.8308895111
3564,0.9090909004
3565,0.8308895111
3566,0.8504399299
3567,0.7917888641
3568,0.8504399299
3569,0.7722384929
3570,0.8113391876
3571,0.7526881694
3572,0.7429130077
3573,0.7429130077
3574,0.6744868278
3575,0.6647116661
3576,0.6158357620
3577,0.5669599056
3578,0.5767350673
3579,0.5083088874
3580,0.4887585639
3581,0.4594330310
3582,0.4594330310
3583,0.4301075458
3584,0.4692081928
3585,0.4301075458
3586,0.3812316703
3587,0.3910068321
3588,0.3616813421
3589,0.3128054618
3590,0.2932551193
3591,0.2834799575
3592,0.2541544437
3593,0.2443792819
3594,0.2834799575
3595,0.2834799575
3596,0.2639296054
3597,0.2346040964
3598,0.2443792819
3599,0.2541544437
3600,0.2737047910
3601,0.2541544437
3602,0.2639296054
3603,0.2541544437
3604,0.2346040964
3605,0.2052785873
3606,0.1661779165
3607,0.1661779165
3608,0.1661779165
3609,0.1661779165
3610,0.1564027309
3611,0.1661779165
3612,0.1759530782
3613,0.1759530782
3614,0.1564027309
3615,0.1466275596
3616,0.1466275596
3617,0.1466275596
3618,0.1564027309
3619,0.1564027309
3620,0.1368523955
3621,0.1466275596
3622,0.1368523955
3623,0.1466275596
3624,0.1270772218
3625,0.1270772218
3626,0.1270772218
3627,0.1466275596
3628,0.1270772218
3629,0.1075268864
3630,0.0977517032
3631,0.1075268864
3632,0.1270772218
3633,0.1173020482
3634,0.1270772218
3635,0.1368523955
3636,0.1368523955
3637,0.1173020482
3638,0.1466275596
3639,0.1759530782
3640,0.1466275596
3641,0.1368523955
3642,0.1368523955
3643,0.1368523955
3644,0.1368523955
3645,0.1466275596
3646,0.1368523955
3647,0.1173020482
3648,0.1075268864
3649,0.0879765415
3650,0.0879765415
3651,0.0879765415
3652,0.0977517032
3653,0.0879765415
3654,0.1173020482
3655,0.1075268864
3656,0.1075268864
3657,0.0977517032
3658,0.1173020482
3659,0.1173020482
3660,0.1270772218
3661,0.1564027309
3662,0.1564027309
3663,0.1857282543
3664,0.2052785873
3665,0.3421309947
3666,0.3910068321
3667,0.4594330310
3668,0.4789833545
3669,0.6353860855
3670,0.6256109237
3671,0.6256109237
3672,0.5962854385
3673,0.6256109237
3674,0.6256109237
3675,0.5962854385
3676,0.5962854385
3677,0.6549364089
3678,0.7038123130
3679,0.7135874748
3680,0.9579667091
3681,0.9286412239
3682,0.9188660621
3683,0.8993157386
3684,0.8211143493
3685,0.7331378459
3686,0.8308895111
3687,0.8993157386
3688,0.9090909004
3689,0.8015640258
3690,0.7429130077
3691,0.7526881694
3692,0.6744868278
3693,0.6158357620
3694,0.5376344203
3695,0.4692081928
3696,0.4594330310
3697,0.4887585639
3698,0.4496578693
3699,0.4203323364
3700,0.4105571746
3701,0.3812316703
3702,0.3616813421
3703,0.3812316703
3704,0.4105571746
3705,0.3616813421
3706,0.3128054618
3707,0.3519061565
3708,0.3225806236
3709,0.3225806236
3710,0.3323558330
3711,0.3225806236
3712,0.3128054618
3713,0.2932551193
3714,0.2639296054
3715,0.2443792819
3716,0.2248289346
3717,0.2248289346
3718,0.2150537729
3719,0.2443792819
3720,0.2541544437
3721,0.2248289346
3722,0.1857282543
3723,0.1955034160
3724,0.2248289346
3725,0.1955034160
3726,0.1857282543
3727,0.1955034160
3728,0.1759530782
3729,0.1661779165
3730,0.1564027309
3731,0.1661779165
3732,0.1661779165
3733,0.1857282543
3734,0.1759530782
3735,0.1759530782
3736,0.1759530782
3737,0.1564027309
3738,0.1466275596
3739,0.1564027309
3740,0.1368523955
3741,0.1173020482
3742,0.1270772218
3743,0.1270772218
3744,0.1564027309
3745,0.1564027309
3746,0.1661779165
3747,0.1564027309
3748,0.1368523955
3749,0.1368523955
3750,0.1368523955
3751,0.1466275596
3752,0.1368523955
3753,0.1270772218
3754,0.1270772218
3755,0.1075268864
3756,0.0977517032
3757,0.1075268864
3758,0.1270772218
3759,0.1368523955
3760,0.2052785873
3761,0.3030303001
3762,0.2737047910
3763,0.2639296054
3764,0.3030303001
3765,0.3128054618
3766,0.2834799575
3767,0.2932551193
3768,0.3128054618
3769,0.3128054618
3770,0.3225806236
3771,0.3812316703
3772,0.3910068321
3773,0.4496578693
3774,0.4594330310
3775,0.6158357620
3776,0.5767350673
3777,0.7429130077
3778,0.7722384929
3779,0.7429130077
3780,0.8602150917
3781,0.8211143493
3782,0.8895405769
3783,0.7820136547
3784,0.8113391876
3785,0.8504399299
3786,0.8015640258
3787,0.8797654151
3788,0.8797654151
3789,0.7820136547
3790,0.8015640258
3791,0.8211143493
3792,0.7429130077
3793,0.7038123130
3794,0.6647116661
3795,0.6256109237
3796,0.6549364089
3797,0.5865102291
3798,0.5571847438
3799,0.5083088874
3800,0.5278592109
3801,0.4789833545
3802,0.4203323364
3803,0.4789833545
3804,0.4398827075
3805,0.4105571746
3806,0.4301075458
3807,0.4105571746
3808,0.3812316703
3809,0.3519061565
3810,0.3128054618
3811,0.3030303001
3812,0.2834799575
3813,0.2639296054
3814,0.2443792819
3815,0.2737047910
3816,0.3616813421
3817,0.3030303001
3818,0.3323558330
3819,0.3128054618
3820,0.2737047910
3821,0.2639296054
3822,0.2443792819
3823,0.2248289346
3824,0.2346040964
3825,0.2443792819
3826,0.2248289346
3827,0.2052785873
3828,0.2443792819
3829,0.2248289346
3830,0.2052785873
3831,0.2346040964
3832,0.2443792819
3833,0.2150537729
3834,0.2150537729
3835,0.2248289346
3836,0.2248289346
3837,0.2150537729
3838,0.2052785873
3839,0.1955034160
3840,0.1759530782
3841,0.1661779165
3842,0.1661779165
3843,0.1661779165
3844,0.1661779165
3845,0.1759530782
3846,0.1661779165
3847,0.1661779165
3848,0.1759530782
3849,0.1857282543
3850,0.1661779165
3851,0.1759530782
3852,0.1661779165
3853,0.1661779165
3854,0.1759530782
3855,0.1564027309
3856,0.1466275596
3857,0.1466275596
3858,0.1661779165
3859,0.2052785873
3860,0.1759530782
3861,0.1759530782
3862,0.1564027309
3863,0.1661779165
3864,0.1466275596
3865,0.1368523955
3866,0.1270772218
3867,0.1368523955
3868,0.1466275596
3869,0.1270772218
3870,0.1075268864
3871,0.0977517032
3872,0.0977517032
3873,0.1075268864
3874,0.0977517032
3875,0.1075268864
3876,0.1075268864
3877,0.1075268864
3878,0.0977517032
3879,0.1075268864
3880,0.0977517032
3881,0.0977517032
3882,0.0977517032
3883,0.0977517032
3884,0.1173020482
3885,0.1564027309
3886,0.1759530782
3887,0.3323558330
3888,0.3323558330
3889,0.3616813421
3890,0.4007820129
3891,0.3812316703
3892,0.3812316703
3893,0.4105571746
3894,0.5669599056
3895,0.5278592109
3896,0.5180840492
3897,0.5767350673
3898,0.6744868278
3899,0.8015640258
3900,0.7820136547
3901,0.7917888641
3902,0.9970674514
3903,1.0654937028
3904,1.0263929367
3905,1.1241446733
3906,1.1143695116
3907,1.1143695116
3908,1.0850440216
3909,1.0263929367
3910,0.9775171279
3911,0.9286412239
3912,0.8406646728
3913,0.8406646728
3914,0.8211143493
3915,0.8015640258
3916,0.7429130077
3917,0.6549364089
3918,0.6158357620
3919,0.5474095821
3920,0.5767350673
3921,0.5865102291
3922,0.5376344203
3923,0.5767350673
3924,0.5962854385
3925,0.5278592109
3926,0.5083088874
3927,0.4594330310
3928,0.4007820129
3929,0.3812316703
3930,0.3519061565
3931,0.3323558330
3932,0.3128054618
3933,0.3812316703
3934,0.3519061565
3935,0.3323558330
3936,0.2834799575
3937,0.2737047910
3938,0.2541544437
3939,0.2346040964
3940,0.2150537729
3941,0.2248289346
3942,0.2150537729
3943,0.2052785873
3944,0.2248289346
3945,0.2639296054
3946,0.2639296054
3947,0.2248289346
3948,0.2346040964
3949,0.2248289346
3950,0.2052785873
3951,0.1759530782
3952,0.1661779165
3953,0.1661779165
3954,0.2052785873
3955,0.2052785873
3956,0.2150537729
3957,0.1955034160
3958,0.1955034160
3959,0.1857282543
3960,0.1955034160
3961,0.1857282543
3962,0.2052785873
3963,0.2248289346
3964,0.2052785873
3965,0.2150537729
3966,0.2443792819
3967,0.2052785873
3968,0.1857282543
3969,0.1661779165
3970,0.1564027309
3971,0.1955034160
3972,0.2346040964
3973,0.2150537729
3974,0.2346040964
3975,0.2150537729
3976,0.1955034160
3977,0.1955034160
3978,0.1759530782
3979,0.1564027309
3980,0.1564027309
3981,0.1368523955
3982,0.1564027309
3983,0.1368523955
3984,0.1270772218
3985,0.1466275596
3986,0.1270772218
3987,0.1173020482
3988,0.1173020482
3989,0.1075268864
3990,0.0977517032
3991,0.1075268864
3992,0.1075268864
3993,0.1075268864
3994,0.0879765415
3995,0.0879765415
3996,0.0782013654
3997,0.0977517032
3998,0.0977517032
3999,0.0879765415
0,0.0977517032
1,1.1143695116
2,0.9090909004
3,0.7429130077
4,0.6060606002
5,0.4985337257
6,0.4105571746
7,0.3323558330
8,0.2737047910
9,0.2248289346
10,0.1857282543
11,0.1466275596
12,0.1173020482
13,0.0977517032
14,0.0782013654
15,0.0684261989
16,0.0488758516
17,0.0488758516
18,0.0391006832
19,0.0293255119
20,0.0195503416
21,0.0195503416
22,0.0097751703
23,0.0097751703
24,0.0097751703
25,0.0097751703
26,0.0000000000
27,0.0000000000
28,0.0000000000
29,0.0000000000
30,0.0000000000
31,0.0000000000
32,0.0000000000
33,0.0000000000
34,0.0000000000
35,0.0000000000
36,0.0000000000
37,0.0000000000
38,0.0000000000
39,0.0000000000
40,0.0000000000
41,0.0000000000
42,0.0000000000
43,0.0000000000
44,0.0097751703
45,0.0000000000
46,0.0097751703
47,0.0097751703
48,0.0097751703
49,0.0097751703
50,0.0097751703
51,0.0000000000
52,0.0000000000
53,0.0000000000
54,0.0000000000
55,0.0000000000
56,0.0000000000
57,0.0000000000
58,0.0000000000
59,0.0000000000
60,0.0000000000
61,0.0000000000
62,0.0000000000
63,0.0000000000
64,0.0000000000
65,0.0000000000
66,0.0000000000
67,0.0000000000
68,0.0000000000
69,0.0000000000
70,0.0000000000
71,0.0000000000
72,0.0000000000
73,0.0000000000
74,0.0000000000
75,0.0000000000
76,0.0000000000
77,0.0000000000
78,0.0000000000
79,0.0000000000
80,0.0000000000
81,0.0000000000
82,0.0000000000
83,0.0000000000
84,0.0000000000
85,0.0000000000
86,0.0000000000
87,0.0000000000
88,0.0000000000
89,0.0000000000
90,0.0097751703
91,0.0000000000
92,0.0000000000
93,0.0000000000
94,0.0000000000
95,0.0000000000
96,0.0000000000
97,0.0000000000
98,0.0000000000
99,0.0000000000
100,0.0000000000
101,0.0000000000
102,0.0000000000
103,0.0000000000
104,0.0000000000
105,0.0000000000
106,0.0000000000
107,0.0000000000
108,0.0000000000
109,0.0000000000
110,0.0000000000
111,0.0000000000
112,0.0000000000
113,0.0000000000
114,0.0000000000
115,0.0000000000
116,0.0000000000
117,0.0000000000
118,0.0000000000
119,0.0000000000
120,0.0000000000
121,0.0000000000
122,0.0000000000
123,0.0000000000
124,0.0000000000
125,0.0000000000
126,0.0000000000
127,0.0000000000
128,0.0000000000
129,0.0000000000
130,0.0000000000
131,0.0000000000
132,0.0000000000
133,0.0000000000
134,0.0000000000
135,0.0000000000
136,0.0000000000
137,0.0000000000
138,0.0000000000
139,0.0000000000
140,0.0000000000
141,0.0000000000
142,0.0000000000
143,0.0000000000
144,0.0000000000
145,0.0000000000
146,0.0000000000
147,0.0000000000
148,0.0000000000
149,0.0000000000
150,0.0000000000
151,0.0000000000
152,0.0000000000
153,0.0000000000
154,0.0000000000
155,0.0000000000
156,0.0000000000
157,0.0000000000
158,0.0000000000
159,0.0000000000
160,0.0000000000
161,0.0000000000
162,0.0000000000
163,0.0000000000
164,0.0000000000
165,0.0000000000
166,0.0000000000
167,0.0000000000
168,0.0000000000
169,0.0000000000
170,0.0000000000
171,0.0000000000
172,0.0000000000
173,0.0000000000
174,0.0000000000
175,0.0000000000
176,0.0000000000
177,0.0000000000
178,0.0000000000
179,0.0000000000
180,0.0000000000
181,0.0000000000
182,0.0000000000
183,0.0000000000
184,0.0000000000
185,0.0000000000
186,0.0000000000
187,0.0000000000
188,0.0000000000
189,0.0097751703
190,0.0097751703
191,0.0097751703
192,0.0097751703
193,0.0097751703
194,0.0097751703
195,0.0097751703
196,0.0097751703
197,0.0097751703
198,0.0097751703
199,0.0097751703
200,0.0097751703
201,0.0097751703
202,0.0097751703
203,0.0000000000
204,0.0000000000
205,0.0000000000
206,0.0000000000
207,0.0000000000
208,0.0097751703
209,0.0097751703
210,0.0097751703
211,0.0097751703
212,0.0097751703
213,0.0097751703
214,0.0097751703
215,0.0000000000
216,0.0000000000
217,0.0097751703
218,0.0000000000
219,0.0000000000
220,0.0000000000
221,0.0000000000
222,0.0000000000
223,0.0097751703
224,0.0000000000
225,0.0000000000
226,0.0000000000
227,0.0000000000
228,0.0000000000
229,0.0000000000
230,0.0000000000
231,0.0000000000
232,0.0000000000
233,0.0000000000
234,0.0000000000
235,0.0000000000
236,0.0000000000
237,0.0000000000
238,0.0000000000
239,0.0000000000
240,0.0000000000
241,0.0000000000
242,0.0000000000
243,0.0000000000
244,0.0000000000
245,0.0000000000
246,0.0000000000
247,0.0000000000
248,0.0000000000
249,0.0000000000
250,0.0000000000
251,0.0000000000
252,0.0000000000
253,0.0000000000
254,0.0000000000
255,0.0000000000
256,0.0000000000
257,0.0000000000
258,0.0000000000
259,0.0000000000
260,0.0000000000
261,0.0097751703
262,0.0097751703
263,0.0097751703
264,0.0097751703
265,0.0097751703
266,0.0000000000
267,0.0000000000
268,0.0000000000
269,0.0000000000
270,0.0000000000
271,0.0000000000
272,0.0000000000
273,0.0000000000
274,0.0000000000
275,0.0000000000
276,0.0000000000
277,0.0000000000
278,0.0000000000
279,0.0000000000
280,0.0000000000
281,0.0000000000
282,0.0000000000
283,0.0000000000
284,0.0000000000
285,0.0000000000
286,0.0000000000
287,0.0000000000
288,0.0000000000
289,0.0000000000
290,0.0000000000
291,0.0000000000
292,0.0000000000
293,0.0000000000
294,0.0000000000
295,0.0000000000
296,0.0000000000
297,0.0000000000
298,0.0000000000
299,0.0000000000
300,0.0000000000
301,0.0000000000
302,0.0000000000
303,0.0000000000
304,0.0000000000
305,0.0000000000
306,0.0000000000
307,0.0000000000
308,0.0000000000
309,0.0097751703
310,0.0097751703
311,0.0097751703
312,0.0097751703
313,0.0000000000
314,0.0097751703
315,0.0000000000
316,0.0000000000
317,0.0000000000
318,0.0000000000
319,0.0000000000
320,0.0000000000
321,0.0000000000
322,0.0000000000
323,0.0097751703
324,0.0000000000
325,0.0097751703
326,0.0000000000
327,0.0000000000
328,0.0000000000
329,0.0000000000
330,0.0000000000
331,0.0000000000
332,0.0000000000
333,0.0000000000
334,0.0000000000
335,0.0000000000
336,0.0097751703
337,0.0097751703
338,0.0097751703
339,0.0000000000
340,0.0000000000
341,0.0000000000
342,0.0000000000
343,0.0000000000
344,0.0000000000
345,0.0000000000
346,0.0000000000
347,0.0000000000
348,0.0000000000
349,0.0000000000
350,0.0000000000
351,0.0000000000
352,0.0000000000
353,0.0000000000
354,0.0000000000
355,0.0000000000
356,0.0000000000
357,0.0000000000
358,0.0000000000
359,0.0000000000
360,0.0000000000
361,0.0000000000
362,0.0000000000
363,0.0000000000
364,0.0000000000
365,0.0000000000
366,0.0000000000
367,0.0000000000
368,0.0000000000
369,0.0000000000
370,0.0000000000
371,0.0000000000
372,0.0000000000
373,0.0000000000
374,0.0000000000
375,0.0000000000
376,0.0000000000
377,0.0000000000
378,0.0000000000
379,0.0097751703
380,0.0000000000
381,0.0000000000
382,0.0097751703
383,0.0000000000
384,0.0000000000
385,0.0000000000
386,0.0000000000
387,0.0000000000
388,0.0000000000
389,0.0000000000
390,0.0000000000
391,0.0000000000
392,0.0000000000
393,0.0000000000
394,0.0000000000
395,0.0000000000
396,0.0000000000
397,0.0000000000
398,0.0000000000
399,0.0000000000
400,0.0000000000
401,0.0000000000
402,0.0000000000
403,0.0000000000
404,0.0000000000
405,0.0000000000
406,0.0000000000
407,0.0000000000
408,0.0000000000
409,0.0000000000
410,0.0000000000
411,0.0000000000
412,0.0000000000
413,0.0000000000
414,0.0000000000
415,0.0000000000
416,0.0000000000
417,0.0000000000
418,0.0000000000
419,0.0000000000
420,0.0000000000
421,0.0000000000
422,0.0000000000
423,0.0000000000
424,0.0000000000
425,0.0000000000
426,0.0000000000
427,0.0000000000
428,0.0000000000
429,0.0097751703
430,0.0000000000
431,0.0000000000
432,0.0000000000
433,0.0000000000
434,0.0000000000
435,0.0000000000
436,0.0097751703
437,0.0097751703
438,0.0000000000
439,0.0097751703
440,0.0000000000
441,0.0000000000
442,0.0000000000
443,0.0000000000
444,0.0000000000
445,0.0000000000
446,0.0000000000
447,0.0000000000
448,0.0000000000
449,0.0000000000
450,0.0000000000
451,0.0000000000
452,0.0000000000
453,0.0000000000
454,0.0000000000
455,0.0000000000
456,0.0000000000
457,0.0000000000
458,0.0000000000
459,0.0000000000
460,0.0000000000
461,0.0000000000
462,0.0000000000
463,0.0000000000
464,0.0000000000
465,0.0000000000
466,0.0000000000
467,0.0000000000
468,0.0000000000
469,0.0000000000
470,0.0000000000
471,0.0000000000
472,0.0000000000
473,0.0000000000
474,0.0097751703
475,0.0000000000
476,0.0000000000
477,0.0000000000
478,0.0000000000
479,0.0000000000
480,0.0000000000
481,0.0000000000
482,0.0000000000
483,0.0000000000
484,0.0000000000
485,0.0000000000
486,0.0097751703
487,0.0000000000
488,0.0000000000
489,0.0000000000
490,0.0000000000
491,0.0000000000
492,0.0000000000
493,0.0000000000
494,0.0000000000
495,0.0000000000
496,0.0000000000
497,0.0000000000
498,0.0000000000
499,0.0000000000
500,0.0000000000
501,0.0000000000
502,0.0000000000
503,0.0000000000
504,0.0000000000
505,0.0000000000
506,0.0000000000
507,0.0097751703
508,0.0097751703
509,0.0097751703
510,0.0097751703
511,0.0000000000
512,0.0000000000
513,0.0000000000
514,0.0000000000
515,0.0000000000
516,0.0000000000
517,0.0000000000
518,0.0000000000
519,0.0000000000
520,0.0000000000
521,0.0000000000
522,0.0000000000
523,0.0000000000
524,0.0000000000
525,0.0000000000
526,0.0000000000
527,0.0000000000
528,0.0000000000
529,0.0000000000
530,0.0000000000
531,0.0000000000
532,0.0000000000
533,0.0000000000
534,0.0000000000
535,0.0000000000
536,0.0000000000
537,0.0000000000
538,0.0000000000
539,0.0000000000
540,0.0000000000
541,0.0097751703
542,0.0097751703
543,0.0000000000
544,0.0000000000
545,0.0000000000
546,0.0000000000
547,0.0000000000
548,0.0000000000
549,0.0000000000
550,0.0000000000
551,0.0000000000
552,0.0000000000
553,0.0000000000
554,0.0000000000
555,0.0000000000
556,0.0000000000
557,0.0000000000
558,0.0000000000
559,0.0000000000
560,0.0000000000
561,0.0000000000
562,0.0097751703
563,0.0097751703
564,0.0097751703
565,0.0097751703
566,0.0097751703
567,0.0097751703
568,0.0000000000
569,0.0000000000
570,0.0000000000
571,0.0000000000
572,0.0000000000
573,0.0000000000
574,0.0097751703
575,0.0000000000
576,0.0097751703
577,0.0000000000
578,0.0000000000
579,0.0000000000
580,0.0000000000
581,0.0000000000
582,0.0000000000
583,0.0000000000
584,0.0000000000
585,0.0000000000
586,0.0000000000
587,0.0000000000
588,0.0000000000
589,0.0000000000
590,0.0000000000
591,0.0000000000
592,0.0000000000
593,0.0000000000
594,0.0000000000
595,0.0000000000
596,0.0000000000
597,0.0000000000
598,0.0000000000
599,0.0000000000
600,0.0000000000
601,0.0000000000
602,0.0000000000
603,0.0000000000
604,0.0000000000
605,0.0000000000
606,0.0000000000
607,0.0000000000
608,0.0000000000
609,0.0000000000
610,0.0000000000
611,0.0000000000
612,0.0000000000
613,0.0000000000
614,0.0000000000
615,0.0000000000
616,0.0000000000
617,0.0097751703
618,0.0000000000
619,0.0000000000
620,0.0000000000
621,0.0097751703
622,0.0097751703
623,0.0097751703
624,0.0097751703
625,0.0097751703
626,0.0097751703
627,0.0097751703
628,0.0097751703
629,0.0097751703
630,0.0097751703
631,0.0097751703
632,0.0097751703
633,0.0097751703
634,0.0000000000
635,0.0000000000
636,0.0000000000
637,0.0000000000
638,0.0000000000
639,0.0000000000
640,0.0000000000
641,0.0000000000
642,0.0000000000
643,0.0000000000
644,0.0000000000
645,0.0000000000
646,0.0000000000
647,0.0000000000
648,0.0000000000
649,0.0000000000
650,0.0000000000
651,0.0000000000
652,0.0000000000
653,0.0000000000
654,0.0000000000
655,0.0000000000
656,0.0000000000
657,0.0000000000
658,0.0000000000
659,0.0000000000
660,0.0000000000
661,0.0000000000
662,0.0000000000
663,0.0000000000
664,0.0000000000
665,0.0000000000
666,0.0000000000
667,0.0000000000
668,0.0000000000
669,0.0000000000
670,0.0000000000
671,0.0000000000
672,0.0000000000
673,0.0000000000
674,0.0000000000
675,0.0000000000
676,0.0000000000
677,0.0000000000
678,0.0000000000
679,0.0000000000
680,0.0000000000
681,0.0000000000
682,0.0000000000
683,0.0000000000
684,0.0000000000
685,0.0000000000
686,0.0000000000
687,0.0000000000
688,0.0000000000
689,0.0000000000
690,0.0000000000
691,0.0000000000
692,0.0000000000
693,0.0000000000
694,0.0000000000
695,0.0000000000
696,0.0000000000
697,0.0000000000
698,0.0000000000
699,0.0000000000
700,0.0000000000
701,0.0000000000
702,0.0000000000
703,0.0000000000
704,0.0000000000
705,0.0000000000
706,0.0000000000
707,0.0097751703
708,0.0000000000
709,0.0097751703
710,0.0097751703
711,0.0097751703
712,0.0000000000
713,0.0000000000
714,0.0000000000
715,0.0000000000
716,0.0000000000
717,0.0000000000
718,0.0000000000
719,0.0000000000
720,0.0000000000
721,0.0000000000
722,0.0000000000
723,0.0000000000
724,0.0000000000
725,0.0000000000
726,0.0097751703
727,0.0000000000
728,0.0000000000
729,0.0000000000
730,0.0000000000
731,0.0000000000
732,0.0000000000
733,0.0000000000
734,0.0000000000
735,0.0097751703
736,0.0000000000
737,0.0000000000
738,0.0000000000
739,0.0000000000
740,0.0000000000
741,0.0000000000
742,0.0000000000
743,0.0000000000
744,0.0000000000
745,0.0000000000
746,0.0000000000
747,0.0000000000
748,0.0000000000
749,0.0097751703
750,0.0097751703
751,0.0195503416
752,0.0195503416
753,0.0195503416
754,0.0195503416
755,0.0195503416
756,0.0195503416
757,0.0195503416
758,0.0195503416
759,0.0097751703
760,0.0097751703
761,0.0097751703
762,0.0097751703
763,0.0097751703
764,0.0097751703
765,0.0097751703
766,0.0097751703
767,0.0000000000
768,0.0000000000
769,0.0000000000
770,0.0000000000
771,0.0000000000
772,0.0000000000
773,0.0000000000
774,0.0097751703
775,0.0097751703
776,0.0000000000
777,0.0000000000
778,0.0000000000
779,0.0000000000
780,0.0000000000
781,0.0000000000
782,0.0000000000
783,0.0000000000
784,0.0000000000
785,0.0000000000
786,0.0000000000
787,0.0000000000
788,0.0000000000
789,0.0000000000
790,0.0000000000
791,0.0097751703
792,0.0097751703
793,0.0000000000
794,0.0097751703
795,0.0000000000
796,0.0097751703
797,0.0097751703
798,0.0097751703
799,0.0097751703
800,0.0097751703
801,0.0097751703
802,0.0000000000
803,0.0097751703
804,0.0097751703
805,0.0000000000
806,0.0000000000
807,0.0000000000
808,0.0000000000
809,0.0000000000
810,0.0000000000
811,0.0000000000
812,0.0000000000
813,0.0000000000
814,0.0000000000
815,0.0000000000
816,0.0000000000
817,0.0000000000
818,0.0000000000
819,0.0000000000
820,0.0000000000
821,0.0000000000
822,0.0000000000
823,0.0000000000
824,0.0000000000
825,0.0000000000
826,0.0000000000
827,0.0000000000
828,0.0000000000
829,0.0000000000
830,0.0000000000
831,0.0000000000
832,0.0000000000
833,0.0000000000
834,0.0000000000
835,0.0000000000
836,0.0097751703
837,0.0000000000
838,0.0000000000
839,0.0000000000
840,0.0000000000
841,0.0000000000
842,0.0000000000
843,0.0000000000
844,0.0097751703
845,0.0097751703
846,0.0097751703
847,0.0097751703
848,0.0097751703
849,0.0097751703
850,0.0097751703
851,0.0097751703
852,0.0000000000
853,0.0097751703
854,0.0097751703
855,0.0097751703
856,0.0000000000
857,0.0097751703
858,0.0000000000
859,0.0097751703
860,0.0000000000
861,0.0000000000
862,0.0000000000
863,0.0000000000
864,0.0000000000
865,0.0000000000
866,0.0000000000
867,0.0000000000
868,0.0000000000
869,0.0000000000
870,0.0000000000
871,0.0000000000
872,0.0000000000
873,0.0000000000
874,0.0000000000
875,0.0097751703
876,0.0000000000
877,0.0000000000
878,0.0000000000
879,0.0000000000
880,0.0000000000
881,0.0000000000
882,0.0000000000
883,0.0000000000
884,0.0000000000
885,0.0000000000
886,0.0000000000
887,0.0000000000
888,0.0000000000
889,0.0000000000
890,0.0000000000
891,0.0000000000
892,0.0000000000
893,0.0000000000
894,0.0000000000
895,0.0000000000
896,0.0000000000
897,0.0000000000
898,0.0000000000
899,0.0097751703
900,0.0097751703
901,0.0097751703
902,0.0000000000
903,0.0000000000
904,0.0097751703
905,0.0097751703
906,0.0097751703
907,0.0097751703
908,0.0000000000
909,0.0097751703
910,0.0000000000
911,0.0000000000
912,0.0000000000
913,0.0000000000
914,0.0000000000
915,0.0000000000
916,0.0000000000
917,0.0000000000
918,0.0000000000
919,0.0000000000
920,0.0000000000
921,0.0000000000
922,0.0000000000
923,0.0000000000
924,0.0000000000
925,0.0000000000
926,0.0000000000
927,0.0000000000
928,0.0000000000
929,0.0000000000
930,0.0000000000
931,0.0000000000
932,0.0097751703
933,0.0195503416
934,0.0097751703
935,0.0195503416
936,0.0195503416
937,0.0195503416
938,0.0195503416
939,0.0195503416
940,0.0097751703
941,0.0097751703
942,0.0097751703
943,0.0097751703
944,0.0097751703
945,0.0097751703
946,0.0097751703
947,0.0097751703
948,0.0097751703
949,0.0000000000
950,0.0000000000
951,0.0000000000
952,0.0000000000
953,0.0000000000
954,0.0097751703
955,0.0000000000
956,0.0000000000
957,0.0000000000
958,0.0000000000
959,0.0000000000
960,0.0097751703
961,0.0097751703
962,0.0000000000
963,0.0097751703
964,0.0000000000
965,0.0000000000
966,0.0000000000
967,0.0000000000
968,0.0000000000
969,0.0000000000
970,0.0000000000
971,0.0097751703
972,0.0000000000
973,0.0000000000
974,0.0000000000
975,0.0000000000
976,0.0097751703
977,0.0097751703
978,0.0097751703
979,0.0097751703
980,0.0097751703
981,0.0000000000
982,0.0000000000
983,0.0000000000
984,0.0000000000
985,0.0000000000
986,0.0000000000
987,0.0000000000
988,0.0000000000
989,0.0097751703
990,0.0097751703
991,0.0097751703
992,0.0097751703
993,0.0097751703
994,0.0097751703
995,0.0000000000
996,0.0000000000
997,0.0000000000
998,0.0000000000
999,0.0000000000
1000,0.0097751703
1001,0.4887585639
1002,0.4105571746
1003,0.3616813421
1004,0.3128054618
1005,0.2737047910
1006,0.2541544437
1007,0.2346040964
1008,0.2150537729
1009,0.2150537729
1010,0.2150537729
1011,0.2346040964
1012,0.2248289346
1013,0.2248289346
1014,0.3128054618
1015,0.3323558330
1016,0.3323558330
1017,0.2932551193
1018,0.2834799575
1019,0.2639296054
1020,0.2248289346
1021,0.2443792819
1022,0.2541544437
1023,0.2443792819
1024,0.2932551193
1025,0.2737047910
1026,0.2639296054
1027,0.2443792819
1028,0.2346040964
1029,0.2639296054
1030,0.2346040964
1031,0.2150537729
1032,0.2052785873
1033,0.1955034160
1034,0.1759530782
1035,0.1564027309
1036,0.1564027309
1037,0.1368523955
1038,0.1270772218
1039,0.1075268864
1040,0.0977517032
1041,0.1368523955
1042,0.1466275596
1043,0.1270772218
1044,0.1173020482
1045,0.1173020482
1046,0.1075268864
1047,0.1173020482
1048,0.1075268864
1049,0.0879765415
1050,0.0782013654
1051,0.0977517032
1052,0.0977517032
1053,0.0977517032
1054,0.0977517032
1055,0.1075268864
1056,0.1075268864
1057,0.0879765415
1058,0.0977517032
1059,0.0879765415
1060,0.0782013654
1061,0.0782013654
1062,0.0684261989
1063,0.0684261989
1064,0.0782013654
1065,0.0684261989
1066,0.0586510229
1067,0.0586510229
1068,0.0684261989
1069,0.0586510229
1070,0.0782013654
1071,0.0684261989
1072,0.0488758516
1073,0.0488758516
1074,0.0488758516
1075,0.0488758516
1076,0.0586510229
1077,0.0586510229
1078,0.0586510229
1079,0.0488758516
1080,0.0488758516
1081,0.0488758516
1082,0.0391006832
1083,0.0391006832
1084,0.0391006832
1085,0.0391006832
1086,0.0293255119
1087,0.0391006832
1088,0.0391006832
1089,0.0488758516
1090,0.0488758516
1091,0.0391006832
1092,0.0391006832
1093,0.0391006832
1094,0.0293255119
1095,0.0293255119
1096,0.0293255119
1097,0.0293255119
1098,0.0293255119
1099,0.0293255119
1100,0.0391006832
1101,0.0391006832
1102,0.0293255119
1103,0.0293255119
1104,0.0391006832
1105,0.0391006832
1106,0.0391006832
1107,0.0391006832
1108,0.0488758516
1109,0.0391006832
1110,0.0488758516
1111,0.0488758516
1112,0.0586510229
1113,0.0586510229
1114,0.0586510229
1115,0.0684261989
1116,0.0684261989
1117,0.0684261989
1118,0.0684261989
1119,0.0684261989
1120,0.0586510229
1121,0.0684261989
1122,0.0684261989
1123,0.0977517032
1124,0.1368523955
1125,0.1466275596
1126,0.1661779165
1127,0.1661779165
1128,0.2443792819
1129,0.2737047910
1130,0.2639296054
1131,0.2834799575
1132,0.2737047910
1133,0.2834799575
1134,0.2541544437
1135,0.2639296054
1136,0.2737047910
1137,0.2737047910
1138,0.3030303001
1139,0.2932551193
1140,0.3128054618
1141,0.3030303001
1142,0.3128054618
1143,0.2834799575
1144,0.2541544437
1145,0.2737047910
1146,0.2541544437
1147,0.2932551193
1148,0.2932551193
1149,0.2834799575
1150,0.2541544437
1151,0.2541544437
1152,0.2443792819
1153,0.2639296054
1154,0.2737047910
1155,0.2346040964
1156,0.2052785873
1157,0.2052785873
1158,0.2052785873
1159,0.2052785873
1160,0.1857282543
1161,0.1857282543
1162,0.1857282543
1163,0.1759530782
1164,0.1466275596
1165,0.1368523955
1166,0.1270772218
1167,0.1270772218
1168,0.1173020482
1169,0.1270772218
1170,0.1466275596
1171,0.1564027309
1172,0.1270772218
1173,0.1270772218
1174,0.1270772218
1175,0.1270772218
1176,0.1075268864
1177,0.1075268864
1178,0.1075268864
1179,0.1075268864
1180,0.1173020482
1181,0.1661779165
1182,0.1564027309
1183,0.1270772218
1184,0.1270772218
1185,0.1075268864
1186,0.0977517032
1187,0.0879765415
1188,0.0977517032
1189,0.0879765415
1190,0.0782013654
1191,0.0684261989
1192,0.0684261989
1193,0.0684261989
1194,0.0684261989
1195,0.0586510229
1196,0.0684261989
1197,0.0586510229
1198,0.0586510229
1199,0.0684261989
1200,0.0684261989
1201,0.0586510229
1202,0.0782013654
1203,0.0879765415
1204,0.0782013654
1205,0.0782013654
1206,0.0684261989
1207,0.0684261989
1208,0.0684261989
1209,0.0586510229
1210,0.0586510229
1211,0.0684261989
1212,0.0684261989
1213,0.0684261989
1214,0.0684261989
1215,0.0782013654
1216,0.0879765415
1217,0.0879765415
1218,0.0782013654
1219,0.0879765415
1220,0.0977517032
1221,0.0879765415
1222,0.0977517032
1223,0.0879765415
1224,0.0977517032
1225,0.0977517032
1226,0.0977517032
1227,0.0977517032
1228,0.1075268864
1229,0.1075268864
1230,0.1075268864
1231,0.1075268864
1232,0.1075268864
1233,0.1564027309
1234,0.1955034160
1235,0.1759530782
1236,0.1759530782
1237,0.2052785873
1238,0.2052785873
1239,0.2052785873
1240,0.2443792819
1241,0.2248289346
1242,0.2150537729
1243,0.2052785873
1244,0.2052785873
1245,0.2248289346
1246,0.2346040964
1247,0.2248289346
1248,0.2248289346
1249,0.2150537729
1250,0.2346040964
1251,0.2248289346
1252,0.2346040964
1253,0.2639296054
1254,0.2737047910
1255,0.2737047910
1256,0.3128054618
1257,0.3323558330
1258,0.3225806236
1259,0.2834799575
1260,0.2541544437
1261,0.3030303001
1262,0.2737047910
1263,0.2834799575
1264,0.2834799575
1265,0.2932551193
1266,0.2834799575
1267,0.2932551193
1268,0.2932551193
1269,0.2932551193
1270,0.2737047910
1271,0.2639296054
1272,0.3030303001
1273,0.3030303001
1274,0.3030303001
1275,0.2737047910
1276,0.2932551193
1277,0.2639296054
1278,0.2346040964
1279,0.2052785873
1280,0.1955034160
1281,0.1857282543
1282,0.1661779165
1283,0.1661779165
1284,0.1759530782
1285,0.1955034160
1286,0.1955034160
1287,0.1759530782
1288,0.1661779165
1289,0.1564027309
1290,0.1466275596
1291,0.1466275596
1292,0.1368523955
1293,0.1270772218
1294,0.1270772218
1295,0.1564027309
1296,0.1466275596
1297,0.1270772218
1298,0.1270772218
1299,0.1173020482
1300,0.1466275596
1301,0.1270772218
1302,0.1466275596
1303,0.1270772218
1304,0.1173020482
1305,0.1173020482
1306,0.1075268864
1307,0.1075268864
1308,0.0977517032
1309,0.0879765415
1310,0.0782013654
1311,0.0782013654
1312,0.0879765415
1313,0.1075268864
1314,0.0977517032
1315,0.0977517032
1316,0.0879765415
1317,0.0782013654
1318,0.0977517032
1319,0.0782013654
1320,0.0782013654
1321,0.0879765415
1322,0.0879765415
1323,0.0879765415
1324,0.0879765415
1325,0.0782013654
1326,0.0684261989
1327,0.0782013654
1328,0.0684261989
1329,0.0586510229
1330,0.0684261989
1331,0.0684261989
1332,0.0879765415
1333,0.0879765415
1334,0.0782013654
1335,0.0879765415
1336,0.0782013654
1337,0.0684261989
1338,0.0586510229
1339,0.0782013654
1340,0.0782013654
1341,0.0782013654
1342,0.0879765415
1343,0.0782013654
1344,0.0879765415
1345,0.0879765415
1346,0.0782013654
1347,0.0782013654
1348,0.0684261989
1349,0.0782013654
1350,0.0782013654
1351,0.0684261989
1352,0.0586510229
1353,0.0586510229
1354,0.0586510229
1355,0.0586510229
1356,0.0586510229
1357,0.0586510229
1358,0.0684261989
1359,0.0782013654
1360,0.0879765415
1361,0.1075268864
1362,0.1270772218
1363,0.1368523955
1364,0.1466275596
1365,0.1368523955
1366,0.1368523955
1367,0.1270772218
1368,0.1270772218
1369,0.1270772218
1370,0.1173020482
1371,0.1270772218
1372,0.1270772218
1373,0.1270772218
1374,0.1270772218
1375,0.1270772218
1376,0.1466275596
1377,0.1368523955
1378,0.1466275596
1379,0.1759530782
1380,0.1759530782
1381,0.1857282543
1382,0.2150537729
1383,0.2248289346
1384,0.2150537729
1385,0.2150537729
1386,0.2541544437
1387,0.2346040964
1388,0.2443792819
1389,0.2639296054
1390,0.2541544437
1391,0.2443792819
1392,0.2346040964
1393,0.2150537729
1394,0.2150537729
1395,0.2150537729
1396,0.2248289346
1397,0.2052785873
1398,0.2052785873
1399,0.1857282543
1400,0.1857282543
1401,0.1759530782
1402,0.1759530782
1403,0.1661779165
1404,0.1466275596
1405,0.1661779165
1406,0.1759530782
1407,0.1564027309
1408,0.1661779165
1409,0.1759530782
1410,0.1955034160
1411,0.1759530782
1412,0.1759530782
1413,0.1759530782
1414,0.1564027309
1415,0.1466275596
1416,0.1368523955
1417,0.1661779165
1418,0.1466275596
1419,0.1368523955
1420,0.1466275596
1421,0.1466275596
1422,0.1564027309
1423,0.1368523955
1424,0.1270772218
1425,0.1270772218
1426,0.1270772218
1427,0.1564027309
1428,0.1368523955
1429,0.1368523955
1430,0.1270772218
1431,0.1270772218
1432,0.1270772218
1433,0.1173020482
1434,0.1173020482
1435,0.1075268864
1436,0.0977517032
1437,0.0879765415
1438,0.0879765415
1439,0.0879765415
1440,0.0879765415
1441,0.0684261989
1442,0.0684261989
1443,0.0684261989
1444,0.0684261989
1445,0.0586510229
1446,0.0488758516
1447,0.0391006832
1448,0.0488758516
1449,0.0488758516
1450,0.0391006832
1451,0.0391006832
1452,0.0391006832
1453,0.0293255119
1454,0.0293255119
1455,0.0293255119
1456,0.0293255119
1457,0.0391006832
1458,0.0391006832
1459,0.0488758516
1460,0.0488758516
1461,0.0684261989
1462,0.0684261989
1463,0.0782013654
1464,0.0782013654
1465,0.0782013654
1466,0.0977517032
1467,0.1075268864
1468,0.1075268864
1469,0.1075268864
1470,0.1173020482
1471,0.0977517032
1472,0.1075268864
1473,0.0879765415
1474,0.0977517032
1475,0.0977517032
1476,0.1173020482
1477,0.1173020482
1478,0.1075268864
1479,0.1173020482
1480,0.1173020482
1481,0.1075268864
1482,0.1075268864
1483,0.1173020482
1484,0.1173020482
1485,0.1270772218
1486,0.1270772218
1487,0.1466275596
1488,0.1661779165
1489,0.1955034160
1490,0.1857282543
1491,0.1955034160
1492,0.2346040964
1493,0.2150537729
1494,0.2737047910
1495,0.2541544437
1496,0.2248289346
1497,0.2834799575
1498,0.2639296054
1499,0.3030303001
1500,0.2932551193
1501,0.2737047910
1502,0.2541544437
1503,0.2639296054
1504,0.2541544437
1505,0.2639296054
1506,0.2443792819
1507,0.2737047910
1508,0.2541544437
1509,0.2150537729
1510,0.2052785873
1511,0.1955034160
1512,0.1955034160
1513,0.1955034160
1514,0.1857282543
1515,0.1857282543
1516,0.1955034160
1517,0.1759530782
1518,0.1661779165
1519,0.1857282543
1520,0.1857282543
1521,0.1661779165
1522,0.1564027309
1523,0.1661779165
1524,0.1466275596
1525,0.1564027309
1526,0.1564027309
1527,0.1759530782
1528,0.1466275596
1529,0.1368523955
1530,0.1075268864
1531,0.1075268864
1532,0.0977517032
1533,0.0879765415
1534,0.0684261989
1535,0.0586510229
1536,0.0684261989
1537,0.0782013654
1538,0.0586510229
1539,0.0684261989
1540,0.0586510229
1541,0.0488758516
1542,0.0684261989
1543,0.0684261989
1544,0.0684261989
1545,0.1075268864
1546,0.1075268864
1547,0.1173020482
1548,0.1173020482
1549,0.1173020482
1550,0.1075268864
1551,0.0879765415
1552,0.0977517032
1553,0.1173020482
1554,0.1466275596
1555,0.0977517032
1556,0.1368523955
1557,0.1564027309
1558,0.2052785873
1559,0.2150537729
1560,0.2248289346
1561,0.2150537729
1562,0.2052785873
1563,0.1564027309
1564,0.1075268864
1565,0.1857282543
1566,0.2052785873
1567,0.1955034160
1568,0.1955034160
1569,0.1955034160
1570,0.2346040964
1571,0.2150537729
1572,0.1857282543
1573,0.1661779165
1574,0.1466275596
1575,0.1270772218
1576,0.1075268864
1577,0.0879765415
1578,0.0782013654
1579,0.0782013654
1580,0.0684261989
1581,0.0586510229
1582,0.0586510229
1583,0.0391006832
1584,0.0586510229
1585,0.0488758516
1586,0.0488758516
1587,0.0488758516
1588,0.0488758516
1589,0.0391006832
1590,0.0391006832
1591,0.0488758516
1592,0.0488758516
1593,0.0488758516
1594,0.0488758516
1595,0.0586510229
1596,0.0586510229
1597,0.0586510229
1598,0.0684261989
1599,0.0684261989
1600,0.0586510229
1601,0.0586510229
1602,0.0684261989
1603,0.0684261989
1604,0.0586510229
1605,0.0586510229
1606,0.0684261989
1607,0.0684261989
1608,0.0684261989
1609,0.0586510229
1610,0.0488758516
1611,0.0488758516
1612,0.0488758516
1613,0.0684261989
1614,0.0782013654
1615,0.0977517032
1616,0.1075268864
1617,0.0977517032
1618,0.1270772218
1619,0.1368523955
1620,0.1466275596
1621,0.1759530782
1622,0.1857282543
1623,0.1661779165
1624,0.1466275596
1625,0.1075268864
1626,0.1466275596
1627,0.1270772218
1628,0.1173020482
1629,0.1270772218
1630,0.1564027309
1631,0.1564027309
1632,0.1466275596
1633,0.1466275596
1634,0.1466275596
1635,0.1759530782
1636,0.1661779165
1637,0.1661779165
1638,0.1466275596
1639,0.1466275596
1640,0.1564027309
1641,0.1368523955
1642,0.1368523955
1643,0.1368523955
1644,0.1173020482
1645,0.1075268864
1646,0.1075268864
1647,0.0977517032
1648,0.0782013654
1649,0.0879765415
1650,0.0782013654
1651,0.0684261989
1652,0.0684261989
1653,0.0684261989
1654,0.0586510229
1655,0.0684261989
1656,0.0586510229
1657,0.0684261989
1658,0.0782013654
1659,0.0684261989
1660,0.0684261989
1661,0.0684261989
1662,0.0586510229
1663,0.0488758516
1664,0.0488758516
1665,0.0391006832
1666,0.0391006832
1667,0.0293255119
1668,0.0391006832
1669,0.0488758516
1670,0.0391006832
1671,0.0293255119
1672,0.0293255119
1673,0.0391006832
1674,0.0488758516
1675,0.0391006832
1676,0.0391006832
1677,0.0391006832
1678,0.0391006832
1679,0.0391006832
1680,0.0391006832
1681,0.0488758516
1682,0.0488758516
1683,0.0391006832
1684,0.0391006832
1685,0.0391006832
1686,0.0391006832
1687,0.0293255119
1688,0.0293255119
1689,0.0293255119
1690,0.0391006832
1691,0.0488758516
1692,0.0488758516
1693,0.0391006832
1694,0.0391006832
1695,0.0391006832
1696,0.0293255119
1697,0.0293255119
1698,0.0293255119
1699,0.0293255119
1700,0.0293255119
1701,0.0293255119
1702,0.0391006832
1703,0.0293255119
1704,0.0293255119
1705,0.0293255119
1706,0.0293255119
1707,0.0391006832
1708,0.0488758516
1709,0.0488758516
1710,0.0488758516
1711,0.0391006832
1712,0.0391006832
1713,0.0391006832
1714,0.0391006832
1715,0.0293255119
1716,0.0293255119
1717,0.0391006832
1718,0.0391006832
1719,0.0391006832
1720,0.0488758516
1721,0.0391006832
1722,0.0586510229
1723,0.0782013654
1724,0.0879765415
1725,0.0977517032
1726,0.0879765415
1727,0.0782013654
1728,0.0684261989
1729,0.0782013654
1730,0.0879765415
1731,0.0879765415
1732,0.0782013654
1733,0.0879765415
1734,0.1075268864
1735,0.1368523955
1736,0.1368523955
1737,0.1466275596
1738,0.1564027309
1739,0.1564027309
1740,0.1564027309
1741,0.1564027309
1742,0.1759530782
1743,0.1759530782
1744,0.1661779165
1745,0.1955034160
1746,0.2052785873
1747,0.2052785873
1748,0.2443792819
1749,0.2834799575
1750,0.3030303001
1751,0.2834799575
1752,0.3030303001
1753,0.3030303001
1754,0.2932551193
1755,0.2639296054
1756,0.2346040964
1757,0.2150537729
1758,0.1955034160
1759,0.1857282543
1760,0.1857282543
1761,0.1955034160
1762,0.1857282543
1763,0.1759530782
1764,0.1661779165
1765,0.1661779165
1766,0.1857282543
1767,0.1857282543
1768,0.1661779165
1769,0.1466275596
1770,0.1466275596
1771,0.1564027309
1772,0.1564027309
1773,0.1661779165
1774,0.1661779165
1775,0.1564027309
1776,0.1759530782
1777,0.1857282543
1778,0.1661779165
1779,0.1564027309
1780,0.1564027309
1781,0.1759530782
1782,0.1759530782
1783,0.1564027309
1784,0.1466275596
1785,0.1466275596
1786,0.1661779165
1787,0.1368523955
1788,0.1564027309
1789,0.1661779165
1790,0.1759530782
1791,0.1564027309
1792,0.2346040964
1793,0.2346040964
1794,0.2052785873
1795,0.1661779165
1796,0.1955034160
1797,0.1955034160
1798,0.1661779165
1799,0.1661779165
1800,0.1466275596
1801,0.1270772218
1802,0.1466275596
1803,0.1368523955
1804,0.1368523955
1805,0.1564027309
1806,0.1270772218
1807,0.1368523955
1808,0.1368523955
1809,0.1173020482
1810,0.1270772218
1811,0.1173020482
1812,0.1075268864
1813,0.1075268864
1814,0.1075268864
1815,0.1270772218
1816,0.1270772218
1817,0.1270772218
1818,0.1075268864
1819,0.0977517032
1820,0.1075268864
1821,0.1075268864
1822,0.1075268864
1823,0.0879765415
1824,0.0879765415
1825,0.0782013654
1826,0.0782013654
1827,0.0684261989
1828,0.0782013654
1829,0.0684261989
1830,0.0684261989
1831,0.0684261989
1832,0.0684261989
1833,0.0586510229
1834,0.0586510229
1835,0.0684261989
1836,0.0879765415
1837,0.0782013654
1838,0.0684261989
1839,0.0782013654
1840,0.0782013654
1841,0.0879765415
1842,0.0782013654
1843,0.0684261989
1844,0.0586510229
1845,0.0586510229
1846,0.0684261989
1847,0.0586510229
1848,0.0684261989
1849,0.0684261989
1850,0.0782013654
1851,0.0879765415
1852,0.0879765415
1853,0.0782013654
1854,0.1075268864
1855,0.1173020482
1856,0.1466275596
1857,0.1368523955
1858,0.1368523955
1859,0.1368523955
1860,0.1466275596
1861,0.1466275596
1862,0.1466275596
1863,0.1368523955
1864,0.1466275596
1865,0.1466275596
1866,0.1368523955
1867,0.1270772218
1868,0.1270772218
1869,0.1173020482
1870,0.1368523955
1871,0.1466275596
1872,0.1466275596
1873,0.1466275596
1874,0.1270772218
1875,0.1270772218
1876,0.1173020482
1877,0.1466275596
1878,0.1759530782
1879,0.2248289346
1880,0.2248289346
1881,0.2346040964
1882,0.2052785873
1883,0.2248289346
1884,0.2639296054
1885,0.2346040964
1886,0.2150537729
1887,0.2052785873
1888,0.1857282543
1889,0.1564027309
1890,0.2052785873
1891,0.1955034160
1892,0.1857282543
1893,0.2052785873
1894,0.1759530782
1895,0.1759530782
1896,0.1564027309
1897,0.1564027309
1898,0.1759530782
1899,0.1759530782
1900,0.1759530782
1901,0.1564027309
1902,0.1466275596
1903,0.1466275596
1904,0.1270772218
1905,0.1075268864
1906,0.0977517032
1907,0.0977517032
1908,0.1075268864
1909,0.0977517032
1910,0.1270772218
1911,0.1173020482
1912,0.0879765415
1913,0.0782013654
1914,0.0684261989
1915,0.0684261989
1916,0.0879765415
1917,0.0879765415
1918,0.0782013654
1919,0.0782013654
1920,0.0684261989
1921,0.0684261989
1922,0.0684261989
1923,0.0586510229
1924,0.0684261989
1925,0.0586510229
1926,0.0684261989
1927,0.0586510229
1928,0.0586510229
1929,0.0586510229
1930,0.0684261989
1931,0.0586510229
1932,0.0684261989
1933,0.0684261989
1934,0.0684261989
1935,0.0879765415
1936,0.0782013654
1937,0.0684261989
1938,0.0782013654
1939,0.0684261989
1940,0.0684261989
1941,0.0586510229
1942,0.0586510229
1943,0.0488758516
1944,0.0391006832
1945,0.0586510229
1946,0.0488758516
1947,0.0391006832
1948,0.0391006832
1949,0.0391006832
1950,0.0488758516
1951,0.0488758516
1952,0.0391006832
1953,0.0391006832
1954,0.0488758516
1955,0.0391006832
1956,0.0293255119
1957,0.0293255119
1958,0.0293255119
1959,0.0293255119
1960,0.0293255119
1961,0.0195503416
1962,0.0195503416
1963,0.0293255119
1964,0.0195503416
1965,0.0293255119
1966,0.0391006832
1967,0.0391006832
1968,0.0488758516
1969,0.0684261989
1970,0.0684261989
1971,0.0684261989
1972,0.0879765415
1973,0.1075268864
1974,0.1564027309
1975,0.1368523955
1976,0.1466275596
1977,0.1661779165
1978,0.1661779165
1979,0.1759530782
1980,0.1661779165
1981,0.2150537729
1982,0.2443792819
1983,0.2248289346
1984,0.3128054618
1985,0.2932551193
1986,0.3323558330
1987,0.4105571746
1988,0.4398827075
1989,0.4398827075
1990,0.4203323364
1991,0.4496578693
1992,0.4105571746
1993,0.3616813421
1994,0.3128054618
1995,0.2737047910
1996,0.2541544437
1997,0.2443792819
1998,0.2346040964
1999,0.2150537729
2000,0.2248289346
2001,2.0821113586
2002,1.6226783752
2003,1.2805473804
2004,1.0068426132
2005,0.7820136547
2006,0.6158357620
2007,0.4887585639
2008,0.3812316703
2009,0.3030303001
2010,0.2346040964
2011,0.1857282543
2012,0.1466275596
2013,0.1173020482
2014,0.0879765415
2015,0.0684261989
2016,0.0488758516
2017,0.0391006832
2018,0.0293255119
2019,0.0195503416
2020,0.0195503416
2021,0.0097751703
2022,0.0097751703
2023,0.0097751703
2024,0.0097751703
2025,0.0000000000
2026,0.0000000000
2027,0.0000000000
2028,0.0000000000
2029,0.0000000000
2030,0.0000000000
2031,0.0000000000
2032,0.0000000000
2033,0.0000000000
2034,0.0000000000
2035,0.0000000000
2036,0.0000000000
2037,0.0000000000
2038,0.0000000000
2039,0.0000000000
2040,0.0000000000
2041,0.0000000000
2042,0.0000000000
2043,0.0000000000
2044,0.0000000000
2045,0.0000000000
2046,0.0000000000
2047,0.0000000000
2048,0.0000000000
2049,0.0000000000
2050,0.0000000000
2051,0.0000000000
2052,0.0000000000
2053,0.0000000000
2054,0.0000000000
2055,0.0000000000
2056,0.0000000000
2057,0.0000000000
2058,0.0000000000
2059,0.0000000000
2060,0.0000000000
2061,0.0000000000
2062,0.0000000000
2063,0.0000000000
2064,0.0000000000
2065,0.0000000000
2066,0.0000000000
2067,0.0000000000
2068,0.0000000000
2069,0.0000000000
2070,0.0000000000
2071,0.0000000000
2072,0.0000000000
2073,0.0000000000
2074,0.0000000000
2075,0.0000000000
2076,0.0000000000
2077,0.0000000000
2078,0.0000000000
2079,0.0000000000
2080,0.0000000000
2081,0.0000000000
2082,0.0000000000
2083,0.0000000000
2084,0.0000000000
2085,0.0000000000
2086,0.0000000000
2087,0.0000000000
2088,0.0000000000
2089,0.0000000000
2090,0.0000000000
2091,0.0000000000
2092,0.0000000000
2093,0.0000000000
2094,0.0000000000
2095,0.0000000000
2096,0.0000000000
2097,0.0000000000
2098,0.0000000000
2099,0.0000000000
2100,0.0000000000
2101,0.0000000000
2102,0.0000000000
2103,0.0000000000
2104,0.0000000000
2105,0.0000000000
2106,0.0000000000
2107,0.0000000000
2108,0.0000000000
2109,0.0000000000
2110,0.0000000000
2111,0.0000000000
2112,0.0000000000
2113,0.0000000000
2114,0.0000000000
2115,0.0000000000
2116,0.0000000000
2117,0.0000000000
2118,0.0000000000
2119,0.0000000000
2120,0.0000000000
2121,0.0000000000
2122,0.0000000000
2123,0.0000000000
2124,0.0000000000
2125,0.0000000000
2126,0.0000000000
2127,0.0000000000
2128,0.0000000000
2129,0.0000000000
2130,0.0000000000
2131,0.0000000000
2132,0.0000000000
2133,0.0000000000
2134,0.0000000000
2135,0.0000000000
2136,0.0000000000
2137,0.0000000000
2138,0.0000000000
2139,0.0000000000
2140,0.0000000000
2141,0.0000000000
2142,0.0000000000
2143,0.0000000000
2144,0.0000000000
2145,0.0000000000
2146,0.0000000000
2147,0.0000000000
2148,0.0000000000
2149,0.0000000000
2150,0.0000000000
2151,0.0000000000
2152,0.0000000000
2153,0.0000000000
2154,0.0000000000
2155,0.0000000000
2156,0.0000000000
2157,0.0000000000
2158,0.0000000000
2159,0.0000000000
2160,0.0000000000
2161,0.0000000000
2162,0.0000000000
2163,0.0000000000
2164,0.0000000000
2165,0.0000000000
2166,0.0000000000
2167,0.0000000000
2168,0.0000000000
2169,0.0000000000
2170,0.0000000000
2171,0.0000000000
2172,0.0000000000
2173,0.0000000000
2174,0.0000000000
2175,0.0000000000
2176,0.0000000000
2177,0.0000000000
2178,0.0000000000
2179,0.0000000000
2180,0.0000000000
2181,0.0000000000
2182,0.0000000000
2183,0.0000000000
2184,0.0000000000
2185,0.0000000000
2186,0.0000000000
2187,0.0000000000
2188,0.0000000000
2189,0.0000000000
2190,0.0000000000
2191,0.0000000000
2192,0.0000000000
2193,0.0000000000
2194,0.0000000000
2195,0.0000000000
2196,0.0000000000
2197,0.0000000000
2198,0.0000000000
2199,0.0000000000
2200,0.0000000000
2201,0.0000000000
2202,0.0000000000
2203,0.0000000000
2204,0.0000000000
2205,0.0000000000
2206,0.0000000000
2207,0.0000000000
2208,0.0000000000
2209,0.0000000000
2210,0.0000000000
2211,0.0000000000
2212,0.0000000000
2213,0.0000000000
2214,0.0000000000
2215,0.0000000000
2216,0.0000000000
2217,0.0000000000
2218,0.0000000000
2219,0.0000000000
2220,0.0000000000
2221,0.0000000000
2222,0.0000000000
2223,0.0000000000
2224,0.0000000000
2225,0.0000000000
2226,0.0000000000
2227,0.0000000000
2228,0.0000000000
2229,0.0000000000
2230,0.0000000000
2231,0.0000000000
2232,0.0000000000
2233,0.0000000000
2234,0.0000000000
2235,0.0000000000
2236,0.0000000000
2237,0.0000000000
2238,0.0000000000
2239,0.0000000000
2240,0.0000000000
2241,0.0000000000
2242,0.0000000000
2243,0.0000000000
2244,0.0000000000
2245,0.0000000000
2246,0.0000000000
2247,0.0000000000
2248,0.0000000000
2249,0.0000000000
2250,0.0000000000
2251,0.0000000000
2252,0.0000000000
2253,0.0000000000
2254,0.0000000000
2255,0.0000000000
2256,0.0000000000
2257,0.0000000000
2258,0.0000000000
2259,0.0000000000
2260,0.0000000000
2261,0.0000000000
2262,0.0000000000
2263,0.0000000000
2264,0.0000000000
2265,0.0000000000
2266,0.0000000000
2267,0.0000000000
2268,0.0000000000
2269,0.0000000000
2270,0.0000000000
2271,0.0000000000
2272,0.0000000000
2273,0.0000000000
2274,0.0000000000
2275,0.0000000000
2276,0.0000000000
2277,0.0000000000
2278,0.0000000000
2279,0.0000000000
2280,0.0000000000
2281,0.0000000000
2282,0.0000000000
2283,0.0000000000
2284,0.0000000000
2285,0.0000000000
2286,0.0000000000
2287,0.0000000000
2288,0.0000000000
2289,0.0000000000
2290,0.0000000000
2291,0.0000000000
2292,0.0000000000
2293,0.0000000000
2294,0.0000000000
2295,0.0000000000
2296,0.0000000000
2297,0.0000000000
2298,0.0000000000
2299,0.0000000000
2300,0.0000000000
2301,0.0000000000
2302,0.0000000000
2303,0.0000000000
2304,0.0000000000
2305,0.0000000000
2306,0.0000000000
2307,0.0000000000
2308,0.0000000000
2309,0.0000000000
2310,0.0000000000
2311,0.0000000000
2312,0.0000000000
2313,0.0000000000
2314,0.0000000000
2315,0.0000000000
2316,0.0000000000
2317,0.0000000000
2318,0.0000000000
2319,0.0000000000
2320,0.0000000000
2321,0.0000000000
2322,0.0000000000
2323,0.0000000000
2324,0.0000000000
2325,0.0000000000
2326,0.0000000000
2327,0.0000000000
2328,0.0000000000
2329,0.0000000000
2330,0.0000000000
2331,0.0000000000
2332,0.0000000000
2333,0.0000000000
2334,0.0000000000
2335,0.0000000000
2336,0.0000000000
2337,0.0000000000
2338,0.0000000000
2339,0.0000000000
2340,0.0000000000
2341,0.0000000000
2342,0.0000000000
2343,0.0000000000
2344,0.0000000000
2345,0.0000000000
2346,0.0000000000
2347,0.0000000000
2348,0.0000000000
2349,0.0000000000
2350,0.0000000000
2351,0.0000000000
2352,0.0000000000
2353,0.0000000000
2354,0.0000000000
2355,0.0000000000
2356,0.0000000000
2357,0.0000000000
2358,0.0000000000
2359,0.0000000000
2360,0.0000000000
2361,0.0000000000
2362,0.0000000000
2363,0.0000000000
2364,0.0000000000
2365,0.0000000000
2366,0.0000000000
2367,0.0000000000
2368,0.0000000000
2369,0.0000000000
2370,0.0000000000
2371,0.0000000000
2372,0.0000000000
2373,0.0000000000
2374,0.0000000000
2375,0.0000000000
2376,0.0000000000
2377,0.0000000000
2378,0.0000000000
2379,0.0000000000
2380,0.0000000000
2381,0.0000000000
2382,0.0000000000
2383,0.0000000000
2384,0.0000000000
2385,0.0000000000
2386,0.0000000000
2387,0.0000000000
2388,0.0000000000
2389,0.0000000000
2390,0.0000000000
2391,0.0000000000
2392,0.0000000000
2393,0.0000000000
2394,0.0000000000
2395,0.0000000000
2396,0.0000000000
2397,0.0000000000
2398,0.0000000000
2399,0.0000000000
2400,0.0000000000
2401,0.0000000000
2402,0.0000000000
2403,0.0000000000
2404,0.0000000000
2405,0.0000000000
2406,0.0000000000
2407,0.0000000000
2408,0.0000000000
2409,0.0000000000
2410,0.0000000000
2411,0.0000000000
2412,0.0000000000
2413,0.0000000000
2414,0.0000000000
2415,0.0000000000
2416,0.0000000000
2417,0.0000000000
2418,0.0000000000
2419,0.0000000000
2420,0.0000000000
2421,0.0000000000
2422,0.0000000000
2423,0.0000000000
2424,0.0000000000
2425,0.0000000000
2426,0.0000000000
2427,0.0000000000
2428,0.0000000000
2429,0.0000000000
2430,0.0000000000
2431,0.0000000000
2432,0.0000000000
2433,0.0000000000
2434,0.0000000000
2435,0.0000000000
2436,0.0000000000
2437,0.0000000000
2438,0.0000000000
2439,0.0000000000
2440,0.0000000000
2441,0.0000000000
2442,0.0000000000
2443,0.0000000000
2444,0.0000000000
2445,0.0000000000
2446,0.0000000000
2447,0.0000000000
2448,0.0000000000
2449,0.0000000000
2450,0.0000000000
2451,0.0000000000
2452,0.0000000000
2453,0.0000000000
2454,0.0000000000
2455,0.0000000000
2456,0.0000000000
2457,0.0000000000
2458,0.0000000000
2459,0.0000000000
2460,0.0000000000
2461,0.0000000000
2462,0.0000000000
2463,0.0000000000
2464,0.0000000000
2465,0.0000000000
2466,0.0000000000
2467,0.0000000000
2468,0.0000000000
2469,0.0000000000
2470,0.0000000000
2471,0.0000000000
2472,0.0000000000
2473,0.0000000000
2474,0.0000000000
2475,0.0000000000
2476,0.0000000000
2477,0.0000000000
2478,0.0000000000
2479,0.0000000000
2480,0.0000000000
2481,0.0000000000
2482,0.0000000000
2483,0.0000000000
2484,0.0000000000
2485,0.0000000000
2486,0.0000000000
2487,0.0000000000
2488,0.0000000000
2489,0.0000000000
2490,0.0000000000
2491,0.0000000000
2492,0.0000000000
2493,0.0000000000
2494,0.0000000000
2495,0.0000000000
2496,0.0000000000
2497,0.0000000000
2498,0.0000000000
2499,0.0000000000
2500,0.0000000000
2501,0.0000000000
2502,0.0000000000
2503,0.0000000000
2504,0.0000000000
2505,0.0000000000
2506,0.0000000000
2507,0.0000000000
2508,0.0000000000
2509,0.0000000000
2510,0.0000000000
2511,0.0000000000
2512,0.0000000000
2513,0.0000000000
2514,0.0000000000
2515,0.0000000000
2516,0.0000000000
2517,0.0000000000
2518,0.0000000000
2519,0.0000000000
2520,0.0000000000
2521,0.0000000000
2522,0.0000000000
2523,0.0000000000
2524,0.0000000000
2525,0.0000000000
2526,0.0000000000
2527,0.0000000000
2528,0.0000000000
2529,0.0000000000
2530,0.0000000000
2531,0.0000000000
2532,0.0000000000
2533,0.0000000000
2534,0.0000000000
2535,0.0000000000
2536,0.0000000000
2537,0.0000000000
2538,0.0000000000
2539,0.0000000000
2540,0.0000000000
2541,0.0000000000
2542,0.0000000000
2543,0.0000000000
2544,0.0000000000
2545,0.0000000000
2546,0.0000000000
2547,0.0000000000
2548,0.0000000000
2549,0.0000000000
2550,0.0000000000
2551,0.0000000000
2552,0.0000000000
2553,0.0000000000
2554,0.0000000000
2555,0.0000000000
2556,0.0000000000
2557,0.0000000000
2558,0.0000000000
2559,0.0000000000
2560,0.0000000000
2561,0.0000000000
2562,0.0000000000
2563,0.0000000000
2564,0.0000000000
2565,0.0000000000
2566,0.0000000000
2567,0.0000000000
2568,0.0000000000
2569,0.0000000000
2570,0.0000000000
2571,0.0000000000
2572,0.0000000000
2573,0.0000000000
2574,0.0000000000
2575,0.0000000000
2576,0.0000000000
2577,0.0000000000
2578,0.0000000000
2579,0.0000000000
2580,0.0000000000
2581,0.0000000000
2582,0.0000000000
2583,0.0000000000
2584,0.0000000000
2585,0.0000000000
2586,0.0000000000
2587,0.0000000000
2588,0.0000000000
2589,0.0000000000
2590,0.0000000000
2591,0.0000000000
2592,0.0000000000
2593,0.0000000000
2594,0.0000000000
2595,0.0000000000
2596,0.0000000000
2597,0.0000000000
2598,0.0000000000
2599,0.0000000000
2600,0.0000000000
2601,0.0000000000
2602,0.0000000000
2603,0.0000000000
2604,0.0000000000
2605,0.0000000000
2606,0.0000000000
2607,0.0000000000
2608,0.0000000000
2609,0.0000000000
2610,0.0000000000
2611,0.0000000000
2612,0.0000000000
2613,0.0000000000
2614,0.0000000000
2615,0.0000000000
2616,0.0000000000
2617,0.0000000000
2618,0.0000000000
2619,0.0000000000
2620,0.0000000000
2621,0.0000000000
2622,0.0000000000
2623,0.0000000000
2624,0.0000000000
2625,0.0000000000
2626,0.0000000000
2627,0.0000000000
2628,0.0000000000
2629,0.0000000000
2630,0.0000000000
2631,0.0000000000
2632,0.0000000000
2633,0.0000000000
2634,0.0000000000
2635,0.0097751703
2636,0.0097751703
2637,0.0000000000
2638,0.0000000000
2639,0.0000000000
2640,0.0000000000
2641,0.0000000000
2642,0.0000000000
2643,0.0000000000
2644,0.0000000000
2645,0.0000000000
2646,0.0000000000
2647,0.0000000000
2648,0.0000000000
2649,0.0000000000
2650,0.0000000000
2651,0.0000000000
2652,0.0000000000
2653,0.0000000000
2654,0.0000000000
2655,0.0000000000
2656,0.0000000000
2657,0.0000000000
2658,0.0000000000
2659,0.0000000000
2660,0.0000000000
2661,0.0000000000
2662,0.0000000000
2663,0.0000000000
2664,0.0000000000
2665,0.0000000000
2666,0.0000000000
2667,0.0000000000
2668,0.0000000000
2669,0.0000000000
2670,0.0000000000
2671,0.0000000000
2672,0.0000000000
2673,0.0000000000
2674,0.0000000000
2675,0.0000000000
2676,0.0000000000
2677,0.0000000000
2678,0.0000000000
2679,0.0000000000
2680,0.0000000000
2681,0.0000000000
2682,0.0000000000
2683,0.0000000000
2684,0.0000000000
2685,0.0000000000
2686,0.0000000000
2687,0.0000000000
2688,0.0000000000
2689,0.0000000000
2690,0.0000000000
2691,0.0000000000
2692,0.0000000000
2693,0.0000000000
2694,0.0000000000
2695,0.0000000000
2696,0.0000000000
2697,0.0000000000
2698,0.0000000000
2699,0.0000000000
2700,0.0000000000
2701,0.0000000000
2702,0.0000000000
2703,0.0000000000
2704,0.0000000000
2705,0.0000000000
2706,0.0000000000
2707,0.0000000000
2708,0.0000000000
2709,0.0000000000
2710,0.0000000000
2711,0.0000000000
2712,0.0000000000
2713,0.0000000000
2714,0.0000000000
2715,0.0000000000
2716,0.0000000000
2717,0.0000000000
2718,0.0000000000
2719,0.0000000000
2720,0.0000000000
2721,0.0000000000
2722,0.0000000000
2723,0.0000000000
2724,0.0000000000
2725,0.0000000000
2726,0.0000000000
2727,0.0000000000
2728,0.0000000000
2729,0.0000000000
2730,0.0000000000
2731,0.0000000000
2732,0.0000000000
2733,0.0000000000
2734,0.0000000000
2735,0.0000000000
2736,0.0000000000
2737,0.0000000000
2738,0.0000000000
2739,0.0000000000
2740,0.0000000000
2741,0.0000000000
2742,0.0000000000
2743,0.0000000000
2744,0.0000000000
2745,0.0000000000
2746,0.0000000000
2747,0.0000000000
2748,0.0000000000
2749,0.0000000000
2750,0.0000000000
2751,0.0000000000
2752,0.0000000000
2753,0.0000000000
2754,0.0000000000
2755,0.0000000000
2756,0.0000000000
2757,0.0000000000
2758,0.0000000000
2759,0.0000000000
2760,0.0000000000
2761,0.0000000000
2762,0.0000000000
2763,0.0000000000
2764,0.0000000000
2765,0.0000000000
2766,0.0000000000
2767,0.0000000000
2768,0.0000000000
2769,0.0000000000
2770,0.0000000000
2771,0.0000000000
2772,0.0000000000
2773,0.0000000000
2774,0.0000000000
2775,0.0000000000
2776,0.0000000000
2777,0.0000000000
2778,0.0000000000
2779,0.0000000000
2780,0.0000000000
2781,0.0000000000
2782,0.0000000000
2783,0.0000000000
2784,0.0000000000
2785,0.0000000000
2786,0.0000000000
2787,0.0000000000
2788,0.0000000000
2789,0.0000000000
