00,0.0684261989
1,0.0586510229
2,0.0684261989
3,0.0586510229
4,0.0586510229
5,0.0684261989
6,0.0684261989
7,0.0586510229
8,0.0488758516
9,0.0586510229
10,0.0586510229
11,0.0586510229
12,0.0488758516
13,0.0488758516
14,0.0391006832
15,0.0391006832
16,0.0391006832
17,0.0391006832
18,0.0391006832
19,0.0391006832
20,0.0391006832
21,0.0391006832
22,0.0391006832
23,0.0391006832
24,0.0391006832
25,0.0293255119
26,0.0195503416
27,0.0293255119
28,0.0195503416
29,0.0195503416
30,0.0195503416
31,0.0195503416
32,0.0195503416
33,0.0195503416
34,0.0195503416
35,0.0195503416
36,0.0293255119
37,0.0293255119
38,0.0195503416
39,0.0195503416
40,0.0195503416
41,0.0195503416
42,0.0195503416
43,0.0195503416
44,0.0195503416
45,0.0195503416
46,0.0195503416
47,0.0195503416
48,0.0195503416
49,0.0195503416
50,0.0097751703
51,0.0097751703
52,0.0195503416
53,0.0293255119
54,0.0293255119
55,0.0391006832
56,0.0391006832
57,0.0391006832
58,0.0391006832
59,0.0391006832
60,0.0391006832
61,0.0391006832
62,0.0488758516
63,0.0488758516
64,0.0684261989
65,0.0782013654
66,0.0684261989
67,0.0586510229
68,0.0684261989
69,0.0586510229
70,0.0586510229
71,0.0586510229
72,0.0586510229
73,0.0586510229
74,0.0684261989
75,0.0782013654
76,0.0782013654
77,0.0684261989
78,0.0586510229
79,0.0391006832
80,0.0391006832
81,0.0293255119
82,0.0293255119
83,0.0293255119
84,0.0391006832
85,0.0488758516
86,0.0488758516
87,0.0488758516
88,0.0488758516
89,0.0391006832
90,0.0293255119
91,0.0293255119
92,0.0293255119
93,0.0293255119
94,0.0293255119
95,0.0293255119
96,0.0293255119
97,0.0293255119
98,0.0293255119
99,0.0293255119
100,0.0293255119
101,0.0293255119
102,0.0293255119
103,0.0195503416
104,0.0195503416
105,0.0195503416
106,0.0195503416
107,0.0195503416
108,0.0195503416
109,0.0195503416
110,0.0293255119
111,0.0293255119
112,0.0293255119
113,0.0293255119
114,0.0195503416
115,0.0293255119
116,0.0293255119
117,0.0293255119
118,0.0195503416
119,0.0293255119
120,0.0195503416
121,0.0195503416
122,0.0293255119
123,0.0195503416
124,0.0195503416
125,0.0293255119
126,0.0391006832
127,0.0488758516
128,0.0391006832
129,0.0391006832
130,0.0293255119
131,0.0293255119
132,0.0293255119
133,0.0293255119
134,0.0195503416
135,0.0293255119
136,0.0391006832
137,0.0293255119
138,0.0391006832
139,0.0391006832
140,0.0391006832
141,0.0391006832
142,0.0391006832
143,0.0488758516
144,0.0488758516
145,0.0488758516
146,0.0488758516
147,0.0391006832
148,0.0391006832
149,0.0488758516
150,0.0488758516
151,0.0586510229
152,0.0586510229
153,0.0586510229
154,0.0586510229
155,0.0586510229
156,0.0684261989
157,0.0586510229
158,0.0586510229
159,0.0684261989
160,0.0586510229
161,0.0488758516
162,0.0488758516
163,0.0586510229
164,0.0586510229
165,0.0488758516
166,0.0488758516
167,0.0586510229
168,0.0488758516
169,0.0488758516
170,0.0391006832
171,0.0488758516
172,0.0391006832
173,0.0391006832
174,0.0488758516
175,0.0391006832
176,0.0586510229
177,0.0586510229
178,0.0488758516
179,0.0488758516
180,0.0391006832
181,0.0391006832
182,0.0391006832
183,0.0391006832
184,0.0488758516
185,0.0488758516
186,0.0488758516
187,0.0488758516
188,0.0488758516
189,0.0391006832
190,0.0488758516
191,0.0488758516
192,0.0488758516
193,0.0488758516
194,0.0586510229
195,0.0586510229
196,0.0586510229
197,0.0782013654
198,0.0782013654
199,0.0684261989
200,0.0684261989
201,0.0684261989
202,0.0879765415
203,0.0879765415
204,0.0879765415
205,0.0782013654
206,0.0684261989
207,0.0879765415
208,0.1075268864
209,0.1075268864
210,0.1075268864
211,0.1075268864
212,0.1075268864
213,0.1075268864
214,0.1270772218
215,0.1270772218
216,0.1173020482
217,0.0977517032
218,0.0879765415
219,0.0977517032
220,0.0977517032
221,0.1173020482
222,0.0977517032
223,0.1270772218
224,0.1270772218
225,0.1466275596
226,0.1270772218
227,0.1466275596
228,0.1368523955
229,0.1368523955
230,0.1564027309
231,0.1368523955
232,0.1368523955
233,0.1270772218
234,0.1075268864
235,0.0977517032
236,0.1075268864
237,0.1075268864
238,0.1173020482
239,0.1173020482
240,0.0977517032
241,0.1173020482
242,0.1075268864
243,0.0879765415
244,0.0879765415
245,0.0684261989
246,0.0684261989
247,0.0782013654
248,0.0977517032
249,0.1075268864
250,0.1075268864
251,0.1075268864
252,0.1173020482
253,0.1173020482
254,0.1173020482
255,0.1173020482
256,0.1075268864
257,0.1270772218
258,0.1368523955
259,0.1173020482
260,0.1075268864
261,0.1173020482
262,0.1173020482
263,0.1173020482
264,0.0977517032
265,0.1075268864
266,0.1368523955
267,0.1270772218
268,0.1270772218
269,0.1173020482
270,0.1075268864
271,0.1075268864
272,0.1075268864
273,0.1075268864
274,0.0977517032
275,0.1075268864
276,0.1173020482
277,0.1075268864
278,0.1075268864
279,0.0977517032
280,0.1075268864
281,0.1368523955
282,0.1368523955
283,0.1368523955
284,0.1173020482
285,0.1075268864
286,0.1075268864
287,0.0977517032
288,0.0879765415
289,0.0782013654
290,0.0879765415
291,0.0977517032
292,0.0977517032
293,0.1173020482
294,0.1270772218
295,0.1270772218
296,0.1270772218
297,0.1075268864
298,0.1173020482
299,0.1173020482
300,0.1368523955
301,0.1173020482
302,0.1075268864
303,0.0977517032
304,0.0977517032
305,0.1173020482
306,0.1075268864
307,0.0977517032
308,0.0977517032
309,0.0977517032
310,0.1075268864
311,0.1173020482
312,0.1075268864
313,0.1075268864
314,0.0977517032
315,0.1173020482
316,0.0977517032
317,0.0977517032
318,0.0879765415
319,0.0977517032
320,0.1075268864
321,0.0977517032
322,0.0977517032
323,0.0879765415
324,0.0782013654
325,0.0879765415
326,0.1173020482
327,0.1270772218
328,0.1075268864
329,0.1075268864
330,0.1270772218
331,0.1661779165
332,0.1759530782
333,0.1661779165
334,0.1661779165
335,0.1564027309
336,0.1564027309
337,0.1857282543
338,0.1759530782
339,0.1661779165
340,0.1759530782
341,0.1661779165
342,0.1661779165
343,0.1466275596
344,0.1466275596
345,0.1368523955
346,0.1368523955
347,0.1368523955
348,0.1368523955
349,0.1368523955
350,0.1270772218
351,0.1564027309
352,0.1661779165
353,0.1466275596
354,0.1368523955
355,0.1270772218
356,0.1368523955
357,0.1270772218
358,0.1075268864
359,0.1075268864
360,0.1075268864
361,0.0879765415
362,0.0782013654
363,0.0684261989
364,0.0684261989
365,0.0782013654
366,0.0977517032
367,0.0977517032
368,0.0879765415
369,0.0977517032
370,0.1173020482
371,0.1270772218
372,0.1368523955
373,0.1466275596
374,0.1368523955
375,0.1173020482
376,0.1368523955
377,0.1564027309
378,0.1564027309
379,0.1955034160
380,0.1857282543
381,0.1759530782
382,0.1661779165
383,0.2052785873
384,0.1955034160
385,0.1857282543
386,0.2248289346
387,0.2150537729
388,0.2639296054
389,0.2346040964
390,0.2639296054
391,0.2639296054
392,0.2541544437
393,0.2541544437
394,0.2541544437
395,0.2639296054
396,0.2834799575
397,0.2834799575
398,0.2834799575
399,0.3030303001
400,0.3714565038
401,0.3519061565
402,0.3812316703
403,0.3910068321
404,0.3519061565
405,0.3714565038
406,0.4301075458
407,0.4398827075
408,0.4692081928
409,0.4692081928
410,0.4594330310
411,0.5669599056
412,0.5278592109
413,0.4887585639
414,0.5376344203
415,0.4887585639
416,0.5180840492
417,0.4496578693
418,0.3910068321
419,0.3323558330
420,0.2932551193
421,0.2541544437
422,0.2150537729
423,0.1857282543
424,0.1857282543
425,0.1759530782
426,0.1857282543
427,0.1661779165
428,0.1661779165
429,0.1466275596
430,0.1270772218
431,0.1270772218
432,0.1368523955
433,0.1075268864
434,0.0977517032
435,0.0782013654
436,0.0782013654
437,0.0782013654
438,0.0684261989
439,0.0684261989
440,0.0879765415
441,0.0977517032
442,0.1075268864
443,0.1075268864
444,0.1075268864
445,0.1173020482
446,0.1075268864
447,0.0977517032
448,0.0879765415
449,0.0879765415
450,0.0782013654
451,0.0879765415
452,0.0782013654
453,0.0782013654
454,0.0684261989
455,0.0684261989
456,0.0586510229
457,0.0586510229
458,0.0586510229
459,0.0488758516
460,0.0488758516
461,0.0488758516
462,0.0586510229
463,0.0586510229
464,0.0488758516
465,0.0488758516
466,0.0488758516
467,0.0586510229
468,0.0684261989
469,0.0782013654
470,0.0879765415
471,0.0977517032
472,0.1075268864
473,0.0977517032
474,0.0879765415
475,0.0879765415
476,0.0782013654
477,0.0684261989
478,0.0586510229
479,0.0684261989
480,0.0684261989
481,0.0782013654
482,0.0977517032
483,0.0977517032
484,0.1173020482
485,0.1368523955
486,0.1270772218
487,0.1173020482
488,0.0977517032
489,0.0879765415
490,0.0879765415
491,0.1075268864
492,0.1173020482
493,0.1368523955
494,0.1564027309
495,0.1661779165
496,0.1759530782
497,0.1857282543
498,0.1661779165
499,0.1368523955
500,0.1270772218
501,0.1075268864
502,0.0977517032
503,0.0879765415
504,0.0879765415
505,0.0782013654
506,0.0684261989
507,0.0684261989
508,0.0586510229
509,0.0684261989
510,0.0684261989
511,0.0586510229
512,0.0488758516
513,0.0488758516
514,0.0488758516
515,0.0488758516
516,0.0488758516
517,0.0488758516
518,0.0488758516
519,0.0488758516
520,0.0586510229
521,0.0684261989
522,0.0782013654
523,0.0977517032
524,0.0977517032
525,0.0977517032
526,0.0977517032
527,0.0782013654
528,0.0684261989
529,0.0684261989
530,0.0782013654
531,0.0782013654
532,0.0782013654
533,0.0782013654
534,0.0684261989
535,0.0684261989
536,0.0684261989
537,0.0684261989
538,0.0782013654
539,0.0879765415
540,0.0782013654
541,0.0977517032
542,0.0977517032
543,0.0879765415
544,0.0879765415
545,0.1075268864
546,0.0879765415
547,0.0977517032
548,0.0879765415
549,0.0782013654
550,0.0879765415
551,0.0977517032
552,0.0879765415
553,0.0782013654
554,0.0977517032
555,0.1075268864
556,0.0879765415
557,0.0977517032
558,0.0977517032
559,0.0977517032
560,0.0879765415
561,0.0684261989
562,0.0684261989
563,0.0586510229
564,0.0586510229
565,0.0586510229
566,0.0586510229
567,0.0684261989
568,0.1075268864
569,0.0977517032
570,0.1075268864
571,0.0977517032
572,0.0782013654
573,0.0684261989
574,0.0684261989
575,0.0586510229
576,0.0586510229
577,0.0488758516
578,0.0488758516
579,0.0391006832
580,0.0391006832
581,0.0391006832
582,0.0488758516
583,0.0391006832
584,0.0293255119
585,0.0293255119
586,0.0391006832
587,0.0391006832
588,0.0488758516
589,0.0488758516
590,0.0586510229
591,0.0488758516
592,0.0586510229
593,0.0684261989
594,0.0782013654
595,0.0879765415
596,0.1075268864
597,0.0977517032
598,0.1270772218
599,0.1368523955
600,0.1368523955
601,0.1661779165
602,0.1759530782
603,0.1759530782
604,0.1955034160
605,0.2052785873
606,0.2150537729
607,0.2052785873
608,0.2248289346
609,0.2346040964
610,0.2346040964
611,0.2737047910
612,0.2541544437
613,0.2541544437
614,0.2541544437
615,0.2639296054
616,0.2541544437
617,0.2443792819
618,0.2541544437
619,0.2639296054
620,0.2639296054
621,0.2932551193
622,0.3323558330
623,0.3323558330
624,0.3714565038
625,0.3616813421
626,0.3714565038
627,0.3812316703
628,0.3421309947
629,0.3519061565
630,0.3128054618
631,0.2932551193
632,0.3225806236
633,0.3225806236
634,0.3225806236
635,0.3225806236
636,0.3225806236
637,0.3519061565
638,0.3616813421
639,0.3225806236
640,0.3421309947
641,0.3421309947
642,0.3225806236
643,0.3812316703
644,0.3616813421
645,0.3030303001
646,0.2834799575
647,0.2639296054
648,0.2248289346
649,0.1955034160
650,0.1955034160
651,0.1955034160
652,0.1661779165
653,0.1466275596
654,0.1368523955
655,0.1368523955
656,0.1173020482
657,0.1075268864
658,0.1075268864
659,0.0977517032
660,0.1173020482
661,0.1173020482
662,0.1270772218
663,0.1368523955
664,0.1270772218
665,0.1270772218
666,0.1368523955
667,0.1270772218
668,0.1270772218
669,0.1075268864
670,0.1173020482
671,0.1270772218
672,0.1075268864
673,0.1075268864
674,0.1075268864
675,0.0879765415
676,0.0782013654
677,0.0879765415
678,0.0879765415
679,0.0879765415
680,0.0684261989
681,0.0684261989
682,0.0684261989
683,0.0684261989
684,0.0684261989
685,0.0684261989
686,0.0782013654
687,0.0782013654
688,0.0684261989
689,0.0586510229
690,0.0782013654
691,0.0684261989
692,0.0782013654
693,0.0782013654
694,0.0782013654
695,0.0782013654
696,0.0879765415
697,0.0879765415
698,0.0879765415
699,0.0879765415
700,0.0684261989
701,0.0684261989
702,0.0586510229
703,0.0488758516
704,0.0488758516
705,0.0488758516
706,0.0488758516
707,0.0586510229
708,0.0586510229
709,0.0684261989
710,0.0782013654
711,0.0782013654
712,0.0684261989
713,0.0586510229
714,0.0586510229
715,0.0586510229
716,0.0782013654
717,0.0977517032
718,0.1075268864
719,0.1173020482
720,0.1173020482
721,0.1173020482
722,0.1075268864
723,0.0977517032
724,0.0879765415
725,0.0782013654
726,0.0782013654
727,0.0684261989
728,0.0684261989
729,0.0586510229
730,0.0586510229
731,0.0586510229
732,0.0586510229
733,0.0586510229
734,0.0684261989
735,0.0684261989
736,0.0782013654
737,0.0782013654
738,0.0782013654
739,0.0782013654
740,0.0782013654
741,0.0879765415
742,0.0879765415
743,0.0879765415
744,0.0977517032
745,0.0879765415
746,0.0879765415
747,0.0782013654
748,0.0684261989
749,0.0782013654
750,0.0782013654
751,0.0879765415
752,0.0879765415
753,0.0977517032
754,0.0977517032
755,0.0879765415
756,0.0782013654
757,0.0684261989
758,0.0684261989
759,0.0586510229
760,0.0586510229
761,0.0488758516
762,0.0586510229
763,0.0586510229
764,0.0586510229
765,0.0488758516
766,0.0586510229
767,0.0488758516
768,0.0488758516
769,0.0586510229
770,0.0586510229
771,0.0586510229
772,0.0684261989
773,0.0684261989
774,0.0684261989
775,0.0684261989
776,0.0684261989
777,0.0684261989
778,0.0782013654
779,0.0684261989
780,0.0586510229
781,0.0586510229
782,0.0586510229
783,0.0684261989
784,0.0684261989
785,0.0586510229
786,0.0586510229
787,0.0586510229
788,0.0684261989
789,0.0684261989
790,0.0586510229
791,0.0586510229
792,0.0586510229
793,0.0586510229
794,0.0586510229
795,0.0586510229
796,0.0586510229
797,0.0488758516
798,0.0391006832
799,0.0391006832
800,0.0391006832
801,0.0391006832
802,0.0293255119
803,0.0293255119
804,0.0391006832
805,0.0488758516
806,0.0488758516
807,0.0391006832
808,0.0488758516
809,0.0586510229
810,0.0586510229
811,0.0684261989
812,0.0977517032
813,0.1075268864
814,0.1075268864
815,0.1075268864
816,0.1466275596
817,0.1661779165
818,0.1661779165
819,0.1857282543
820,0.1857282543
821,0.2248289346
822,0.2248289346
823,0.2052785873
824,0.2052785873
825,0.1955034160
826,0.1955034160
827,0.2443792819
828,0.3128054618
829,0.2932551193
830,0.2932551193
831,0.2932551193
832,0.3030303001
833,0.3128054618
834,0.3030303001
835,0.3128054618
836,0.3323558330
837,0.3421309947
838,0.3519061565
839,0.3519061565
840,0.4105571746
841,0.4203323364
842,0.4398827075
843,0.4692081928
844,0.4594330310
845,0.4398827075
846,0.4887585639
847,0.4887585639
848,0.4496578693
849,0.4007820129
850,0.3812316703
851,0.3910068321
852,0.4105571746
853,0.3714565038
854,0.4105571746
855,0.4301075458
856,0.4496578693
857,0.4496578693
858,0.4301075458
859,0.4301075458
860,0.3812316703
861,0.3616813421
862,0.4007820129
863,0.4007820129
864,0.3519061565
865,0.3030303001
866,0.3030303001
867,0.2737047910
868,0.2443792819
869,0.2150537729
870,0.2052785873
871,0.2150537729
872,0.1857282543
873,0.1661779165
874,0.1661779165
875,0.1466275596
876,0.1368523955
877,0.1368523955
878,0.1368523955
879,0.1270772218
880,0.1368523955
881,0.1270772218
882,0.1368523955
883,0.1173020482
884,0.1270772218
885,0.1173020482
886,0.1075268864
887,0.1075268864
888,0.0879765415
889,0.0977517032
890,0.0879765415
891,0.0977517032
892,0.0782013654
893,0.0879765415
894,0.0782013654
895,0.0782013654
896,0.0782013654
897,0.0879765415
898,0.0977517032
899,0.0879765415
900,0.0879765415
901,0.0977517032
902,0.1075268864
903,0.1075268864
904,0.1466275596
905,0.1857282543
906,0.1661779165
907,0.1466275596
908,0.1564027309
909,0.1466275596
910,0.1466275596
911,0.1368523955
912,0.1173020482
913,0.1075268864
914,0.1368523955
915,0.1270772218
916,0.1368523955
917,0.1173020482
918,0.1270772218
919,0.1466275596
920,0.1368523955
921,0.1270772218
922,0.1270772218
923,0.1173020482
924,0.1173020482
925,0.1075268864
926,0.0977517032
927,0.0977517032
928,0.0977517032
929,0.0977517032
930,0.1075268864
931,0.1075268864
932,0.1173020482
933,0.0977517032
934,0.1173020482
935,0.1368523955
936,0.1173020482
937,0.1075268864
938,0.1075268864
939,0.1075268864
940,0.1173020482
941,0.1270772218
942,0.1270772218
943,0.1466275596
944,0.1368523955
945,0.1173020482
946,0.0977517032
947,0.0977517032
948,0.1075268864
949,0.0977517032
950,0.0879765415
951,0.0977517032
952,0.0977517032
953,0.0879765415
954,0.1075268864
955,0.1075268864
956,0.1173020482
957,0.1173020482
958,0.1075268864
959,0.0977517032
960,0.0977517032
961,0.0977517032
962,0.0977517032
963,0.0977517032
964,0.0879765415
965,0.0782013654
966,0.0782013654
967,0.0684261989
968,0.0684261989
969,0.0684261989
970,0.0684261989
971,0.0782013654
972,0.0879765415
973,0.0782013654
974,0.0782013654
975,0.0684261989
976,0.0586510229
977,0.0684261989
978,0.0782013654
979,0.0684261989
980,0.0782013654
981,0.0782013654
982,0.0879765415
983,0.0782013654
984,0.0879765415
985,0.0782013654
986,0.0684261989
987,0.0684261989
988,0.0977517032
989,0.0977517032
990,0.0879765415
991,0.0879765415
992,0.0684261989
993,0.0586510229
994,0.0684261989
995,0.0684261989
996,0.0586510229
997,0.0586510229
998,0.0586510229
999,0.0782013654
1000,0.0879765415
1001,2.2776148319
1002,1.7986314296
1003,1.4173997879
1004,1.1241446733
1005,0.8993157386
1006,0.7233626842
1007,0.5767350673
1008,0.4594330310
1009,0.3714565038
1010,0.2932551193
1011,0.2346040964
1012,0.1955034160
1013,0.1564027309
1014,0.1270772218
1015,0.0977517032
1016,0.0782013654
1017,0.0684261989
1018,0.0488758516
1019,0.0488758516
1020,0.0391006832
1021,0.0293255119
1022,0.0293255119
1023,0.0293255119
1024,0.0293255119
1025,0.0195503416
1026,0.0195503416
1027,0.0293255119
1028,0.0488758516
1029,0.0684261989
1030,0.0977517032
1031,0.1075268864
1032,0.1173020482
1033,0.1270772218
1034,0.2150537729
1035,0.2052785873
1036,0.2150537729
1037,0.2346040964
1038,0.2541544437
1039,0.2541544437
1040,0.2443792819
1041,0.2346040964
1042,0.2639296054
1043,0.2639296054
1044,0.2443792819
1045,0.2932551193
1046,0.3421309947
1047,0.3714565038
1048,0.3519061565
1049,0.3421309947
1050,0.3812316703
1051,0.4496578693
1052,0.4789833545
1053,0.5767350673
1054,0.5474095821
1055,0.5376344203
1056,0.4985337257
1057,0.4398827075
1058,0.4985337257
1059,0.7331378459
1060,0.6940371513
1061,0.6842619895
1062,0.7135874748
1063,0.6451612472
1064,0.5865102291
1065,0.5083088874
1066,0.4692081928
1067,0.4692081928
1068,0.4692081928
1069,0.5278592109
1070,0.4985337257
1071,0.4496578693
1072,0.4203323364
1073,0.3910068321
1074,0.3323558330
1075,0.2932551193
1076,0.2541544437
1077,0.2052785873
1078,0.1759530782
1079,0.1368523955
1080,0.1173020482
1081,0.0977517032
1082,0.0879765415
1083,0.1075268864
1084,0.0977517032
1085,0.1075268864
1086,0.1075268864
1087,0.0977517032
1088,0.0977517032
1089,0.0977517032
1090,0.1075268864
1091,0.1075268864
1092,0.1270772218
1093,0.1368523955
1094,0.1173020482
1095,0.1270772218
1096,0.1075268864
1097,0.1075268864
1098,0.0879765415
1099,0.0879765415
1100,0.0977517032
1101,0.0977517032
1102,0.0879765415
1103,0.0782013654
1104,0.0782013654
1105,0.0879765415
1106,0.0782013654
1107,0.0782013654
1108,0.0684261989
1109,0.0782013654
1110,0.0684261989
1111,0.0684261989
1112,0.0782013654
1113,0.0782013654
1114,0.0782013654
1115,0.0782013654
1116,0.0782013654
1117,0.0782013654
1118,0.0879765415
1119,0.0684261989
1120,0.0684261989
1121,0.0684261989
1122,0.0684261989
1123,0.0684261989
1124,0.0684261989
1125,0.0684261989
1126,0.0586510229
1127,0.0586510229
1128,0.0586510229
1129,0.0684261989
1130,0.0684261989
1131,0.0586510229
1132,0.0586510229
1133,0.0586510229
1134,0.0488758516
1135,0.0488758516
1136,0.0586510229
1137,0.0586510229
1138,0.0684261989
1139,0.0684261989
1140,0.0684261989
1141,0.0782013654
1142,0.0879765415
1143,0.0782013654
1144,0.0782013654
1145,0.0684261989
1146,0.0684261989
1147,0.0586510229
1148,0.0684261989
1149,0.0684261989
1150,0.0782013654
1151,0.0879765415
1152,0.0879765415
1153,0.0879765415
1154,0.0782013654
1155,0.0782013654
1156,0.0782013654
1157,0.0684261989
1158,0.0684261989
1159,0.0879765415
1160,0.0684261989
1161,0.0586510229
1162,0.0586510229
1163,0.0586510229
1164,0.0488758516
1165,0.0586510229
1166,0.0586510229
1167,0.0586510229
1168,0.0684261989
1169,0.0586510229
1170,0.0586510229
1171,0.0586510229
1172,0.0488758516
1173,0.0586510229
1174,0.0586510229
1175,0.0586510229
1176,0.0586510229
1177,0.0488758516
1178,0.0586510229
1179,0.0586510229
1180,0.0586510229
1181,0.0586510229
1182,0.0684261989
1183,0.0684261989
1184,0.0684261989
1185,0.0586510229
1186,0.0586510229
1187,0.0586510229
1188,0.0586510229
1189,0.0586510229
1190,0.0879765415
1191,0.0977517032
1192,0.0977517032
1193,0.0977517032
1194,0.0879765415
1195,0.0782013654
1196,0.0684261989
1197,0.0586510229
1198,0.0488758516
1199,0.0391006832
1200,0.0391006832
1201,0.0293255119
1202,0.0293255119
1203,0.0195503416
1204,0.0195503416
1205,0.0097751703
1206,0.0097751703
1207,0.0097751703
1208,0.0097751703
1209,0.0097751703
1210,0.0097751703
1211,0.0097751703
1212,0.0195503416
1213,0.0097751703
1214,0.0195503416
1215,0.0293255119
1216,0.0586510229
1217,0.0684261989
1218,0.0684261989
1219,0.0782013654
1220,0.1075268864
1221,0.1270772218
1222,0.1270772218
1223,0.1368523955
1224,0.1564027309
1225,0.1759530782
1226,0.1759530782
1227,0.1955034160
1228,0.2052785873
1229,0.2541544437
1230,0.2443792819
1231,0.2248289346
1232,0.2150537729
1233,0.2737047910
1234,0.2639296054
1235,0.2248289346
1236,0.2248289346
1237,0.2639296054
1238,0.2346040964
1239,0.2443792819
1240,0.2737047910
1241,0.2541544437
1242,0.2443792819
1243,0.2541544437
1244,0.2639296054
1245,0.3128054618
1246,0.3323558330
1247,0.3225806236
1248,0.3519061565
1249,0.3519061565
1250,0.3714565038
1251,0.3616813421
1252,0.3323558330
1253,0.3421309947
1254,0.3128054618
1255,0.2932551193
1256,0.3225806236
1257,0.3225806236
1258,0.2834799575
1259,0.2541544437
1260,0.2443792819
1261,0.2248289346
1262,0.2052785873
1263,0.1759530782
1264,0.1564027309
1265,0.1466275596
1266,0.1368523955
1267,0.1368523955
1268,0.1270772218
1269,0.1075268864
1270,0.0977517032
1271,0.0879765415
1272,0.0879765415
1273,0.0782013654
1274,0.0782013654
1275,0.0684261989
1276,0.0684261989
1277,0.0684261989
1278,0.0586510229
1279,0.0684261989
1280,0.0684261989
1281,0.0879765415
1282,0.0879765415
1283,0.0782013654
1284,0.0782013654
1285,0.0782013654
1286,0.0782013654
1287,0.0879765415
1288,0.0879765415
1289,0.0879765415
1290,0.0879765415
1291,0.0879765415
1292,0.0879765415
1293,0.0879765415
1294,0.0782013654
1295,0.0684261989
1296,0.0684261989
1297,0.0782013654
1298,0.0782013654
1299,0.0684261989
1300,0.0684261989
1301,0.0586510229
1302,0.0684261989
1303,0.0782013654
1304,0.0782013654
1305,0.0782013654
1306,0.0782013654
1307,0.0684261989
1308,0.0684261989
1309,0.0782013654
1310,0.0782013654
1311,0.0684261989
1312,0.0684261989
1313,0.0684261989
1314,0.0684261989
1315,0.0684261989
1316,0.0586510229
1317,0.0586510229
1318,0.0586510229
1319,0.0488758516
1320,0.0488758516
1321,0.0488758516
1322,0.0586510229
1323,0.0586510229
1324,0.0586510229
1325,0.0586510229
1326,0.0586510229
1327,0.0488758516
1328,0.0488758516
1329,0.0586510229
1330,0.0488758516
1331,0.0586510229
1332,0.0684261989
1333,0.0684261989
1334,0.0684261989
1335,0.0586510229
1336,0.0586510229
1337,0.0684261989
1338,0.0684261989
1339,0.0684261989
1340,0.0586510229
1341,0.0586510229
1342,0.0586510229
1343,0.0586510229
1344,0.0488758516
1345,0.0488758516
1346,0.0391006832
1347,0.0391006832
1348,0.0391006832
1349,0.0488758516
1350,0.0488758516
1351,0.0488758516
1352,0.0391006832
1353,0.0488758516
1354,0.0293255119
1355,0.0293255119
1356,0.0293255119
1357,0.0293255119
1358,0.0293255119
1359,0.0293255119
1360,0.0293255119
1361,0.0293255119
1362,0.0391006832
1363,0.0391006832
1364,0.0391006832
1365,0.0391006832
1366,0.0391006832
1367,0.0488758516
1368,0.0488758516
1369,0.0391006832
1370,0.0391006832
1371,0.0488758516
1372,0.0391006832
1373,0.0391006832
1374,0.0391006832
1375,0.0488758516
1376,0.0391006832
1377,0.0391006832
1378,0.0488758516
1379,0.0488758516
1380,0.0391006832
1381,0.0391006832
1382,0.0391006832
1383,0.0488758516
1384,0.0488758516
1385,0.0586510229
1386,0.0684261989
1387,0.0782013654
1388,0.0684261989
1389,0.0782013654
1390,0.0782013654
1391,0.0684261989
1392,0.0684261989
1393,0.0684261989
1394,0.0586510229
1395,0.0488758516
1396,0.0488758516
1397,0.0488758516
1398,0.0488758516
1399,0.0684261989
1400,0.0879765415
1401,0.0782013654
1402,0.0782013654
1403,0.0684261989
1404,0.0684261989
1405,0.0488758516
1406,0.0488758516
1407,0.0391006832
1408,0.0391006832
1409,0.0293255119
1410,0.0293255119
1411,0.0195503416
1412,0.0195503416
1413,0.0195503416
1414,0.0097751703
1415,0.0097751703
1416,0.0195503416
1417,0.0097751703
1418,0.0097751703
1419,0.0097751703
1420,0.0097751703
1421,0.0097751703
1422,0.0097751703
1423,0.0097751703
1424,0.0293255119
1425,0.0488758516
1426,0.0488758516
1427,0.0684261989
1428,0.1270772218
1429,0.1368523955
1430,0.1368523955
1431,0.1466275596
1432,0.1368523955
1433,0.1466275596
1434,0.1661779165
1435,0.1466275596
1436,0.1564027309
1437,0.1368523955
1438,0.1857282543
1439,0.1857282543
1440,0.1955034160
1441,0.2443792819
1442,0.2346040964
1443,0.2052785873
1444,0.1955034160
1445,0.1857282543
1446,0.1759530782
1447,0.1857282543
1448,0.1661779165
1449,0.1661779165
1450,0.1564027309
1451,0.1466275596
1452,0.1564027309
1453,0.1759530782
1454,0.1661779165
1455,0.1857282543
1456,0.2150537729
1457,0.2443792819
1458,0.2639296054
1459,0.2737047910
1460,0.2834799575
1461,0.3323558330
1462,0.3910068321
1463,0.4594330310
1464,0.5376344203
1465,0.5669599056
1466,0.6940371513
1467,0.7038123130
1468,0.6744868278
1469,0.6353860855
1470,0.5571847438
1471,0.5180840492
1472,0.4398827075
1473,0.3910068321
1474,0.3421309947
1475,0.3030303001
1476,0.2443792819
1477,0.2052785873
1478,0.1955034160
1479,0.1759530782
1480,0.1759530782
1481,0.1661779165
1482,0.1661779165
1483,0.1759530782
1484,0.2052785873
1485,0.1955034160
1486,0.2248289346
1487,0.2639296054
1488,0.3030303001
1489,0.2737047910
1490,0.3030303001
1491,0.2932551193
1492,0.2834799575
1493,0.2834799575
1494,0.2834799575
1495,0.2639296054
1496,0.2346040964
1497,0.1955034160
1498,0.1955034160
1499,0.1759530782
1500,0.1661779165
1501,0.1564027309
1502,0.1368523955
1503,0.1368523955
1504,0.1270772218
1505,0.1270772218
1506,0.1075268864
1507,0.1173020482
1508,0.1075268864
1509,0.1075268864
1510,0.0977517032
1511,0.0977517032
1512,0.1075268864
1513,0.0977517032
1514,0.1075268864
1515,0.1270772218
1516,0.1075268864
1517,0.1270772218
1518,0.1173020482
1519,0.1075268864
1520,0.1173020482
1521,0.1173020482
1522,0.1075268864
1523,0.0977517032
1524,0.1075268864
1525,0.0977517032
1526,0.0879765415
1527,0.0977517032
1528,0.0977517032
1529,0.0879765415
1530,0.0879765415
1531,0.0782013654
1532,0.0684261989
1533,0.0684261989
1534,0.0586510229
1535,0.0488758516
1536,0.0488758516
1537,0.0684261989
1538,0.0684261989
1539,0.0586510229
1540,0.0586510229
1541,0.0488758516
1542,0.0488758516
1543,0.0586510229
1544,0.0488758516
1545,0.0488758516
1546,0.0586510229
1547,0.0488758516
1548,0.0488758516
1549,0.0488758516
1550,0.0488758516
1551,0.0488758516
1552,0.0391006832
1553,0.0391006832
1554,0.0293255119
1555,0.0488758516
1556,0.0391006832
1557,0.0488758516
1558,0.0391006832
1559,0.0391006832
1560,0.0391006832
1561,0.0488758516
1562,0.0391006832
1563,0.0391006832
1564,0.0391006832
1565,0.0586510229
1566,0.0488758516
1567,0.0488758516
1568,0.0586510229
1569,0.0586510229
1570,0.0586510229
1571,0.0586510229
1572,0.0488758516
1573,0.0488758516
1574,0.0488758516
1575,0.0488758516
1576,0.0488758516
1577,0.0586510229
1578,0.0488758516
1579,0.0391006832
1580,0.0391006832
1581,0.0488758516
1582,0.0391006832
1583,0.0391006832
1584,0.0488758516
1585,0.0488758516
1586,0.0488758516
1587,0.0586510229
1588,0.0586510229
1589,0.0488758516
1590,0.0488758516
1591,0.0488758516
1592,0.0488758516
1593,0.0488758516
1594,0.0488758516
1595,0.0488758516
1596,0.0488758516
1597,0.0586510229
1598,0.0488758516
1599,0.0586510229
1600,0.0684261989
1601,0.0586510229
1602,0.0586510229
1603,0.0586510229
1604,0.0586510229
1605,0.0586510229
1606,0.0684261989
1607,0.0684261989
1608,0.0782013654
1609,0.0879765415
1610,0.0782013654
1611,0.0684261989
1612,0.0488758516
1613,0.0586510229
1614,0.0586510229
1615,0.0488758516
1616,0.0586510229
1617,0.0488758516
1618,0.0488758516
1619,0.0586510229
1620,0.0488758516
1621,0.0586510229
1622,0.0586510229
1623,0.0586510229
1624,0.0488758516
1625,0.0391006832
1626,0.0391006832
1627,0.0293255119
1628,0.0293255119
1629,0.0293255119
1630,0.0195503416
1631,0.0293255119
1632,0.0195503416
1633,0.0195503416
1634,0.0293255119
1635,0.0391006832
1636,0.0586510229
1637,0.0684261989
1638,0.0782013654
1639,0.0684261989
1640,0.0782013654
1641,0.0879765415
1642,0.1173020482
1643,0.1075268864
1644,0.1173020482
1645,0.1173020482
1646,0.1270772218
1647,0.1270772218
1648,0.1173020482
1649,0.1270772218
1650,0.1368523955
1651,0.1368523955
1652,0.1759530782
1653,0.1857282543
1654,0.1661779165
1655,0.1661779165
1656,0.1759530782
1657,0.1661779165
1658,0.1661779165
1659,0.1564027309
1660,0.1661779165
1661,0.1661779165
1662,0.1857282543
1663,0.1955034160
1664,0.2052785873
1665,0.2248289346
1666,0.2150537729
1667,0.2541544437
1668,0.2834799575
1669,0.2834799575
1670,0.3225806236
1671,0.3225806236
1672,0.3421309947
1673,0.3519061565
1674,0.3714565038
1675,0.4105571746
1676,0.4203323364
1677,0.3910068321
1678,0.3812316703
1679,0.3519061565
1680,0.3225806236
1681,0.3128054618
1682,0.3225806236
1683,0.2932551193
1684,0.2639296054
1685,0.2639296054
1686,0.2443792819
1687,0.2150537729
1688,0.1955034160
1689,0.1955034160
1690,0.1955034160
1691,0.1857282543
1692,0.1661779165
1693,0.1466275596
1694,0.1661779165
1695,0.1466275596
1696,0.1270772218
1697,0.1173020482
1698,0.1270772218
1699,0.1173020482
1700,0.1173020482
1701,0.1270772218
1702,0.1270772218
1703,0.1173020482
1704,0.1173020482
1705,0.2248289346
1706,0.2052785873
1707,0.2248289346
1708,0.2052785873
1709,0.1857282543
1710,0.1759530782
1711,0.1857282543
1712,0.1955034160
1713,0.1661779165
1714,0.1564027309
1715,0.1564027309
1716,0.1466275596
1717,0.1270772218
1718,0.1173020482
1719,0.1173020482
1720,0.1075268864
1721,0.1075268864
1722,0.1173020482
1723,0.1075268864
1724,0.1075268864
1725,0.1173020482
1726,0.1075268864
1727,0.1075268864
1728,0.0977517032
1729,0.0879765415
1730,0.0977517032
1731,0.0879765415
1732,0.0977517032
1733,0.1075268864
1734,0.1368523955
1735,0.1368523955
1736,0.1270772218
1737,0.1173020482
1738,0.1075268864
1739,0.0977517032
1740,0.0977517032
1741,0.0879765415
1742,0.0977517032
1743,0.0977517032
1744,0.0879765415
1745,0.0977517032
1746,0.1075268864
1747,0.1075268864
1748,0.0977517032
1749,0.0879765415
1750,0.0782013654
1751,0.0684261989
1752,0.0684261989
1753,0.0782013654
1754,0.0879765415
1755,0.0879765415
1756,0.0782013654
1757,0.0684261989
1758,0.0782013654
1759,0.0684261989
1760,0.0684261989
1761,0.0782013654
1762,0.0782013654
1763,0.0782013654
1764,0.0782013654
1765,0.0684261989
1766,0.0684261989
1767,0.0684261989
1768,0.0586510229
1769,0.0684261989
1770,0.0782013654
1771,0.0684261989
1772,0.0782013654
1773,0.0684261989
1774,0.0586510229
1775,0.0684261989
1776,0.0586510229
1777,0.0586510229
1778,0.0782013654
1779,0.0782013654
1780,0.0684261989
1781,0.0684261989
1782,0.0782013654
1783,0.0684261989
1784,0.0684261989
1785,0.0684261989
1786,0.0586510229
1787,0.0586510229
1788,0.0488758516
1789,0.0488758516
1790,0.0488758516
1791,0.0488758516
1792,0.0586510229
1793,0.0586510229
1794,0.0684261989
1795,0.0684261989
1796,0.0586510229
1797,0.0586510229
1798,0.0488758516
1799,0.0488758516
1800,0.0586510229
1801,0.0488758516
1802,0.0488758516
1803,0.0488758516
1804,0.0488758516
1805,0.0488758516
1806,0.0586510229
1807,0.0586510229
1808,0.0586510229
1809,0.0586510229
1810,0.0586510229
1811,0.0586510229
1812,0.0586510229
1813,0.0586510229
1814,0.0586510229
1815,0.0586510229
1816,0.0684261989
1817,0.0684261989
1818,0.0684261989
1819,0.0586510229
1820,0.0684261989
1821,0.0684261989
1822,0.0684261989
1823,0.0879765415
1824,0.0879765415
1825,0.0879765415
1826,0.0977517032
1827,0.1075268864
1828,0.1075268864
1829,0.0977517032
1830,0.0879765415
1831,0.0879765415
1832,0.0879765415
1833,0.0977517032
1834,0.0879765415
1835,0.0782013654
1836,0.0684261989
1837,0.0684261989
1838,0.0586510229
1839,0.0586510229
1840,0.0586510229
1841,0.0488758516
1842,0.0391006832
1843,0.0293255119
1844,0.0293255119
1845,0.0293255119
1846,0.0195503416
1847,0.0195503416
1848,0.0391006832
1849,0.0391006832
1850,0.0586510229
1851,0.0782013654
1852,0.0879765415
1853,0.1075268864
1854,0.1564027309
1855,0.1564027309
1856,0.1564027309
1857,0.1759530782
1858,0.1857282543
1859,0.2052785873
1860,0.2248289346
1861,0.2248289346
1862,0.2150537729
1863,0.2052785873
1864,0.2346040964
1865,0.2346040964
1866,0.2346040964
1867,0.2639296054
1868,0.2834799575
1869,0.2737047910
1870,0.2932551193
1871,0.2541544437
1872,0.2541544437
1873,0.2346040964
1874,0.2443792819
1875,0.2541544437
1876,0.2834799575
1877,0.2541544437
1878,0.2834799575
1879,0.3030303001
1880,0.3128054618
1881,0.2932551193
1882,0.2834799575
1883,0.2639296054
1884,0.2443792819
1885,0.2443792819
1886,0.3128054618
1887,0.4105571746
1888,0.3616813421
1889,0.3225806236
1890,0.3030303001
1891,0.3030303001
1892,0.3519061565
1893,0.3519061565
1894,0.3714565038
1895,0.3225806236
1896,0.3128054618
1897,0.2932551193
1898,0.2639296054
1899,0.2248289346
1900,0.2052785873
1901,0.2052785873
1902,0.2052785873
1903,0.1759530782
1904,0.2052785873
1905,0.1857282543
1906,0.1564027309
1907,0.1466275596
1908,0.1270772218
1909,0.1173020482
1910,0.1270772218
1911,0.1466275596
1912,0.1368523955
1913,0.1564027309
1914,0.1466275596
1915,0.1857282543
1916,0.2052785873
1917,0.2834799575
1918,0.2932551193
1919,0.2834799575
1920,0.2541544437
1921,0.2248289346
1922,0.1955034160
1923,0.1661779165
1924,0.1661779165
1925,0.1564027309
1926,0.1368523955
1927,0.1564027309
1928,0.1466275596
1929,0.1368523955
1930,0.1466275596
1931,0.1466275596
1932,0.1368523955
1933,0.1270772218
1934,0.1173020482
1935,0.1075268864
1936,0.1173020482
1937,0.1173020482
1938,0.1173020482
1939,0.1270772218
1940,0.1173020482
1941,0.1075268864
1942,0.1075268864
1943,0.1368523955
1944,0.1173020482
1945,0.1173020482
1946,0.1173020482
1947,0.1270772218
1948,0.1270772218
1949,0.1270772218
1950,0.1270772218
1951,0.1173020482
1952,0.1075268864
1953,0.1075268864
1954,0.0977517032
1955,0.0879765415
1956,0.0782013654
1957,0.0879765415
1958,0.0782013654
1959,0.0782013654
1960,0.0782013654
1961,0.0782013654
1962,0.0879765415
1963,0.0879765415
1964,0.0977517032
1965,0.0879765415
1966,0.0684261989
1967,0.0684261989
1968,0.0684261989
1969,0.0684261989
1970,0.0684261989
1971,0.0586510229
1972,0.0684261989
1973,0.0684261989
1974,0.0586510229
1975,0.0586510229
1976,0.0488758516
1977,0.0586510229
1978,0.0684261989
1979,0.0684261989
1980,0.0586510229
1981,0.0586510229
1982,0.0586510229
1983,0.0586510229
1984,0.0586510229
1985,0.0586510229
1986,0.0488758516
1987,0.0586510229
1988,0.0488758516
1989,0.0586510229
1990,0.0586510229
1991,0.0586510229
1992,0.0684261989
1993,0.0684261989
1994,0.0684261989
1995,0.0684261989
1996,0.0586510229
1997,0.0586510229
1998,0.0586510229
1999,0.0586510229
2000,0.0684261989
2001,1.8670577049
2002,1.5053763389
2003,1.2121212482
2004,0.9872922897
2005,0.8797654151
2006,0.7233626842
2007,0.6060606002
2008,0.5180840492
2009,0.4398827075
2010,0.3714565038
2011,0.3225806236
2012,0.3030303001
2013,0.2932551193
2014,0.2639296054
2015,0.2443792819
2016,0.2443792819
2017,0.2541544437
2018,0.2346040964
2019,0.2150537729
2020,0.2248289346
2021,0.2346040964
2022,0.2150537729
2023,0.2150537729
2024,0.2248289346
2025,0.2248289346
2026,0.2052785873
2027,0.2052785873
2028,0.2052785873
2029,0.2248289346
2030,0.2052785873
2031,0.2052785873
2032,0.2443792819
2033,0.2737047910
2034,0.2737047910
2035,0.2541544437
2036,0.2443792819
2037,0.2346040964
2038,0.2639296054
2039,0.2737047910
2040,0.2541544437
2041,0.2541544437
2042,0.2248289346
2043,0.2443792819
2044,0.2443792819
2045,0.2541544437
2046,0.2248289346
2047,0.2052785873
2048,0.2052785873
2049,0.1955034160
2050,0.1955034160
2051,0.2150537729
2052,0.2443792819
2053,0.2541544437
2054,0.2541544437
2055,0.3030303001
2056,0.3225806236
2057,0.3128054618
2058,0.2932551193
2059,0.2541544437
2060,0.2834799575
2061,0.3030303001
2062,0.3128054618
2063,0.3812316703
2064,0.4301075458
2065,0.4203323364
2066,0.4985337257
2067,0.4985337257
2068,0.4985337257
2069,0.5180840492
2070,0.5962854385
2071,0.5962854385
2072,0.6256109237
2073,0.6256109237
2074,0.6060606002
2075,0.7722384929
2076,0.8406646728
2077,0.8308895111
2078,0.7331378459
2079,0.7233626842
2080,0.7135874748
2081,0.7233626842
2082,0.7820136547
2083,0.8113391876
2084,0.8504399299
2085,0.8211143493
2086,0.8895405769
2087,0.8993157386
2088,0.8993157386
2089,1.0068426132
2090,0.9775171279
2091,1.0068426132
2092,0.9677418708
2093,0.9286412239
2094,0.9677418708
2095,0.9775171279
2096,0.9384163856
2097,0.9579667091
2098,0.9872922897
2099,1.0557184219
2100,0.9384163856
2101,0.9384163856
2102,1.0361680984
2103,1.2218964099
2104,1.2023460865
2105,1.1339198350
2106,1.0752688646
2107,1.0361680984
2108,1.0068426132
2109,0.8797654151
2110,0.7624633312
2111,0.8211143493
2112,0.7429130077
2113,0.7624633312
2114,0.6451612472
2115,0.5767350673
2116,0.5180840492
2117,0.4496578693
2118,0.4007820129
2119,0.3910068321
2120,0.3616813421
2121,0.3714565038
2122,0.3519061565
2123,0.3421309947
2124,0.3323558330
2125,0.3519061565
2126,0.3225806236
2127,0.3323558330
2128,0.3714565038
2129,0.3616813421
2130,0.3421309947
2131,0.3421309947
2132,0.3421309947
2133,0.3421309947
2134,0.3519061565
2135,0.3519061565
2136,0.3323558330
2137,0.3030303001
2138,0.2932551193
2139,0.2932551193
2140,0.3030303001
2141,0.2639296054
2142,0.2639296054
2143,0.2639296054
2144,0.2639296054
2145,0.2737047910
2146,0.2639296054
2147,0.2541544437
2148,0.2737047910
2149,0.2834799575
2150,0.3030303001
2151,0.3030303001
2152,0.3225806236
2153,0.3225806236
2154,0.3030303001
2155,0.3030303001
2156,0.2932551193
2157,0.2737047910
2158,0.2834799575
2159,0.2639296054
2160,0.2737047910
2161,0.3030303001
2162,0.3030303001
2163,0.2639296054
2164,0.2541544437
2165,0.2443792819
2166,0.2639296054
2167,0.2541544437
2168,0.2541544437
2169,0.2541544437
2170,0.2639296054
2171,0.2639296054
2172,0.2443792819
2173,0.2639296054
2174,0.2639296054
2175,0.2737047910
2176,0.2737047910
2177,0.2639296054
2178,0.2346040964
2179,0.2346040964
2180,0.2639296054
2181,0.2737047910
2182,0.2834799575
2183,0.3128054618
2184,0.3225806236
2185,0.3323558330
2186,0.3421309947
2187,0.3323558330
2188,0.3421309947
2189,0.3225806236
2190,0.3323558330
2191,0.3421309947
2192,0.3323558330
2193,0.3128054618
2194,0.3030303001
2195,0.2834799575
2196,0.2639296054
2197,0.2834799575
2198,0.2639296054
2199,0.3128054618
2200,0.3714565038
2201,0.3323558330
2202,0.2932551193
2203,0.2639296054
2204,0.2737047910
2205,0.2932551193
2206,0.3128054618
2207,0.2932551193
2208,0.2639296054
2209,0.2834799575
2210,0.2932551193
2211,0.3030303001
2212,0.3128054618
2213,0.2834799575
2214,0.2541544437
2215,0.2541544437
2216,0.2541544437
2217,0.2639296054
2218,0.2541544437
2219,0.2737047910
2220,0.2834799575
2221,0.2737047910
2222,0.2443792819
2223,0.2248289346
2224,0.2150537729
2225,0.2150537729
2226,0.2150537729
2227,0.2248289346
2228,0.2150537729
2229,0.2443792819
2230,0.2443792819
2231,0.2248289346
2232,0.2248289346
2233,0.2639296054
2234,0.2834799575
2235,0.2834799575
2236,0.2639296054
2237,0.2737047910
2238,0.2541544437
2239,0.2346040964
2240,0.2639296054
2241,0.2541544437
2242,0.2346040964
2243,0.2443792819
2244,0.2737047910
2245,0.2639296054
2246,0.2346040964
2247,0.2639296054
2248,0.2541544437
2249,0.2737047910
2250,0.2639296054
2251,0.2443792819
2252,0.2443792819
2253,0.2639296054
2254,0.2737047910
2255,0.2737047910
2256,0.2639296054
2257,0.2639296054
2258,0.2541544437
2259,0.2639296054
2260,0.2443792819
2261,0.2346040964
2262,0.2346040964
2263,0.2150537729
2264,0.2443792819
2265,0.2248289346
2266,0.2443792819
2267,0.2346040964
2268,0.2737047910
2269,0.2737047910
2270,0.2639296054
2271,0.2541544437
2272,0.2639296054
2273,0.3030303001
2274,0.3225806236
2275,0.3812316703
2276,0.4301075458
2277,0.4887585639
2278,0.4985337257
2279,0.5376344203
2280,0.5278592109
2281,0.4985337257
2282,0.4887585639
2283,0.4887585639
2284,0.5571847438
2285,0.5865102291
2286,0.7135874748
2287,0.7526881694
2288,0.7038123130
2289,0.7429130077
2290,0.7917888641
2291,0.7624633312
2292,0.8015640258
2293,0.7624633312
2294,0.8113391876
2295,0.7722384929
2296,0.7429130077
2297,0.7429130077
2298,0.8211143493
2299,0.9090909004
2300,0.9090909004
2301,0.9579667091
2302,0.9090909004
2303,0.9481915473
2304,0.9775171279
2305,0.9872922897
2306,0.9481915473
2307,0.9481915473
2308,0.9090909004
2309,0.8211143493
2310,0.9286412239
2311,0.8797654151
2312,0.8602150917
2313,0.8699902534
2314,0.8699902534
2315,0.8895405769
2316,0.8504399299
2317,0.8504399299
2318,0.8797654151
2319,0.7917888641
2320,0.7917888641
2321,0.7233626842
2322,0.7135874748
2323,0.7233626842
2324,0.6451612472
2325,0.5767350673
2326,0.5474095821
2327,0.4887585639
2328,0.4301075458
2329,0.4594330310
2330,0.4105571746
2331,0.4203323364
2332,0.3812316703
2333,0.3519061565
2334,0.3421309947
2335,0.3225806236
2336,0.3519061565
2337,0.3225806236
2338,0.3030303001
2339,0.3128054618
2340,0.3030303001
2341,0.3030303001
2342,0.3030303001
2343,0.2932551193
2344,0.2737047910
2345,0.2932551193
2346,0.3030303001
2347,0.3225806236
2348,0.2932551193
2349,0.3225806236
2350,0.3421309947
2351,0.3225806236
2352,0.3128054618
2353,0.3225806236
2354,0.3030303001
2355,0.2932551193
2356,0.2834799575
2357,0.2639296054
2358,0.3030303001
2359,0.2932551193
2360,0.2834799575
2361,0.3128054618
2362,0.3030303001
2363,0.3030303001
2364,0.2932551193
2365,0.3030303001
2366,0.3030303001
2367,0.2737047910
2368,0.2639296054
2369,0.2346040964
2370,0.2150537729
2371,0.2248289346
2372,0.2541544437
2373,0.2346040964
2374,0.2248289346
2375,0.2541544437
2376,0.2541544437
2377,0.2443792819
2378,0.2541544437
2379,0.2443792819
2380,0.2248289346
2381,0.2248289346
2382,0.2248289346
2383,0.2248289346
2384,0.2443792819
2385,0.2346040964
2386,0.2541544437
2387,0.2541544437
2388,0.2541544437
2389,0.2541544437
2390,0.2639296054
2391,0.2541544437
2392,0.2346040964
2393,0.2443792819
2394,0.2346040964
2395,0.2150537729
2396,0.2150537729
2397,0.2346040964
2398,0.2150537729
2399,0.2443792819
2400,0.2346040964
2401,0.2443792819
2402,0.2541544437
2403,0.2737047910
2404,0.2541544437
2405,0.2541544437
2406,0.2346040964
2407,0.2639296054
2408,0.2443792819
2409,0.2346040964
2410,0.2443792819
2411,0.2639296054
2412,0.2639296054
2413,0.2541544437
2414,0.2248289346
2415,0.2248289346
2416,0.2248289346
2417,0.2346040964
2418,0.2248289346
2419,0.2346040964
2420,0.2248289346
2421,0.2150537729
2422,0.2052785873
2423,0.2346040964
2424,0.2150537729
2425,0.2248289346
2426,0.2248289346
2427,0.2346040964
2428,0.2248289346
2429,0.2346040964
2430,0.2639296054
2431,0.2443792819
2432,0.2443792819
2433,0.3030303001
2434,0.3128054618
2435,0.3225806236
2436,0.3128054618
2437,0.3128054618
2438,0.3225806236
2439,0.3323558330
2440,0.3323558330
2441,0.3519061565
2442,0.3519061565
2443,0.3421309947
2444,0.3519061565
2445,0.3812316703
2446,0.3910068321
2447,0.3421309947
2448,0.3519061565
2449,0.3323558330
2450,0.3421309947
2451,0.3225806236
2452,0.2932551193
2453,0.2932551193
2454,0.3225806236
2455,0.2932551193
2456,0.2737047910
2457,0.2737047910
2458,0.2541544437
2459,0.2443792819
2460,0.2346040964
2461,0.2248289346
2462,0.2052785873
2463,0.1857282543
2464,0.2248289346
2465,0.2248289346
2466,0.2248289346
2467,0.2150537729
2468,0.2346040964
2469,0.2346040964
2470,0.2346040964
2471,0.2443792819
2472,0.2248289346
2473,0.2346040964
2474,0.2346040964
2475,0.2150537729
2476,0.2150537729
2477,0.2150537729
2478,0.1955034160
2479,0.2150537729
2480,0.2052785873
2481,0.1857282543
2482,0.1857282543
2483,0.1857282543
2484,0.1857282543
2485,0.2150537729
2486,0.2052785873
2487,0.2150537729
2488,0.2346040964
2489,0.2443792819
2490,0.2737047910
2491,0.2737047910
2492,0.2639296054
2493,0.2834799575
2494,0.2834799575
2495,0.2932551193
2496,0.3323558330
2497,0.3030303001
2498,0.3225806236
2499,0.3323558330
2500,0.3812316703
2501,0.3812316703
2502,0.4105571746
2503,0.3910068321
2504,0.3910068321
2505,0.4594330310
2506,0.4887585639
2507,0.5180840492
2508,0.4789833545
2509,0.4985337257
2510,0.5474095821
2511,0.5474095821
2512,0.6451612472
2513,0.6451612472
2514,0.7038123130
2515,0.6549364089
2516,0.6549364089
2517,0.7038123130
2518,0.7233626842
2519,0.7135874748
2520,0.7331378459
2521,0.7135874748
2522,0.7429130077
2523,0.7429130077
2524,0.7917888641
2525,0.8504399299
2526,0.8406646728
2527,0.8211143493
2528,0.8602150917
2529,0.8699902534
2530,0.9579667091
2531,1.0361680984
2532,0.9481915473
2533,0.9775171279
2534,1.0263929367
2535,0.9775171279
2536,0.9872922897
2537,1.0948191833
2538,1.0654937028
2539,1.0459432601
2540,1.0850440216
2541,1.0850440216
2542,1.0166177749
2543,1.0361680984
2544,1.0166177749
2545,0.9188660621
2546,1.0654937028
2547,1.0557184219
2548,1.0850440216
2549,1.0263929367
2550,0.9775171279
2551,0.8602150917
2552,0.7917888641
2553,0.6940371513
2554,0.6158357620
2555,0.5376344203
2556,0.4985337257
2557,0.4496578693
2558,0.4398827075
2559,0.3910068321
2560,0.3616813421
2561,0.3421309947
2562,0.3910068321
2563,0.4203323364
2564,0.4301075458
2565,0.4203323364
2566,0.3812316703
2567,0.3910068321
2568,0.4301075458
2569,0.4301075458
2570,0.3812316703
2571,0.3910068321
2572,0.3519061565
2573,0.3519061565
2574,0.3616813421
2575,0.3225806236
2576,0.3225806236
2577,0.3128054618
2578,0.2932551193
2579,0.2737047910
2580,0.2541544437
2581,0.2737047910
2582,0.2541544437
2583,0.2737047910
2584,0.2639296054
2585,0.2834799575
2586,0.3225806236
2587,0.2834799575
2588,0.2639296054
2589,0.3030303001
2590,0.2834799575
2591,0.2834799575
2592,0.2639296054
2593,0.2639296054
2594,0.2639296054
2595,0.2541544437
2596,0.2248289346
2597,0.2346040964
2598,0.2639296054
2599,0.2834799575
2600,0.3714565038
2601,0.3812316703
2602,0.3714565038
2603,0.3519061565
2604,0.3421309947
2605,0.3225806236
2606,0.3519061565
2607,0.3225806236
2608,0.3030303001
2609,0.3030303001
2610,0.2834799575
2611,0.2737047910
2612,0.2443792819
2613,0.2541544437
2614,0.2443792819
2615,0.2443792819
2616,0.2346040964
2617,0.2248289346
2618,0.2639296054
2619,0.2443792819
2620,0.2443792819
2621,0.2639296054
2622,0.2541544437
2623,0.2834799575
2624,0.2932551193
2625,0.2737047910
2626,0.2737047910
2627,0.2639296054
2628,0.2737047910
2629,0.3030303001
2630,0.3030303001
2631,0.2932551193
2632,0.2834799575
2633,0.2834799575
2634,0.2932551193
2635,0.2834799575
2636,0.2737047910
2637,0.2932551193
2638,0.3030303001
2639,0.3225806236
2640,0.3128054618
2641,0.3225806236
2642,0.2932551193
2643,0.2639296054
2644,0.2639296054
2645,0.2541544437
2646,0.2541544437
2647,0.2932551193
2648,0.3225806236
2649,0.2932551193
2650,0.2932551193
2651,0.2932551193
2652,0.3128054618
2653,0.3421309947
2654,0.3421309947
2655,0.3323558330
2656,0.3030303001
2657,0.2932551193
2658,0.3225806236
2659,0.3128054618
2660,0.2932551193
2661,0.2737047910
2662,0.2932551193
2663,0.2932551193
2664,0.3030303001
2665,0.3128054618
2666,0.3030303001
2667,0.2834799575
2668,0.2737047910
2669,0.2737047910
2670,0.2346040964
2671,0.2248289346
2672,0.2346040964
2673,0.2248289346
2674,0.2150537729
2675,0.1955034160
2676,0.2052785873
2677,0.2052785873
2678,0.2346040964
2679,0.2248289346
2680,0.2150537729
2681,0.2639296054
2682,0.2639296054
2683,0.2443792819
2684,0.2834799575
2685,0.2541544437
2686,0.2639296054
2687,0.2639296054
2688,0.2834799575
2689,0.2834799575
2690,0.2541544437
2691,0.2541544437
2692,0.2639296054
2693,0.2443792819
2694,0.2150537729
2695,0.2150537729
2696,0.2248289346
2697,0.2346040964
2698,0.2443792819
2699,0.2443792819
2700,0.2248289346
2701,0.2052785873
2702,0.1857282543
2703,0.1759530782
2704,0.1955034160
2705,0.1955034160
2706,0.2150537729
2707,0.2150537729
2708,0.2248289346
2709,0.2541544437
2710,0.2932551193
2711,0.2639296054
2712,0.2639296054
2713,0.2932551193
2714,0.3030303001
2715,0.2834799575
2716,0.2932551193
2717,0.2932551193
2718,0.2834799575
2719,0.2834799575
2720,0.3421309947
2721,0.3323558330
2722,0.3030303001
2723,0.3812316703
2724,0.3812316703
2725,0.4007820129
2726,0.4692081928
2727,0.4789833545
2728,0.5083088874
2729,0.4789833545
2730,0.5474095821
2731,0.4985337257
2732,0.6549364089
2733,0.6353860855
2734,0.6256109237
2735,0.6451612472
2736,0.6842619895
2737,0.7722384929
2738,0.9188660621
2739,0.9970674514
2740,0.9481915473
2741,0.9286412239
2742,0.7820136547
2743,0.9579667091
2744,1.0459432601
2745,1.0850440216
2746,1.0752688646
2747,1.0654937028
2748,1.0068426132
2749,1.1045943498
2750,1.1045943498
2751,0.9579667091
2752,0.8895405769
2753,0.9286412239
2754,0.9970674514
2755,0.9775171279
2756,0.9286412239
2757,0.9286412239
2758,0.9384163856
2759,1.0166177749
2760,1.1534701585
2761,1.1241446733
2762,1.1925709247
2763,1.0654937028
2764,0.9481915473
2765,0.9286412239
2766,0.8699902534
2767,0.8308895111
2768,0.7820136547
2769,0.7233626842
2770,0.6353860855
2771,0.6744868278
2772,0.7038123130
2773,0.6842619895
2774,0.6940371513
2775,0.6647116661
2776,0.6451612472
2777,0.5865102291
2778,0.4887585639
2779,0.4985337257
2780,0.4985337257
2781,0.4887585639
2782,0.4594330310
2783,0.4789833545
2784,0.4398827075
2785,0.4301075458
2786,0.4301075458
2787,0.4007820129
2788,0.4007820129
2789,0.4105571746
2790,0.4105571746
2791,0.3910068321
2792,0.3519061565
2793,0.3421309947
2794,0.3128054618
2795,0.3030303001
2796,0.2737047910
2797,0.2639296054
2798,0.2932551193
2799,0.3225806236
2800,0.3128054618
2801,0.3030303001
2802,0.2932551193
2803,0.2639296054
2804,0.2639296054
2805,0.2541544437
2806,0.2443792819
2807,0.2248289346
2808,0.2346040964
2809,0.2248289346
2810,0.2346040964
2811,0.2541544437
2812,0.2541544437
2813,0.2541544437
2814,0.2346040964
2815,0.3128054618
2816,0.3030303001
2817,0.2932551193
2818,0.2932551193
2819,0.2737047910
2820,0.2639296054
2821,0.2737047910
2822,0.2541544437
2823,0.2639296054
2824,0.2346040964
2825,0.2639296054
2826,0.2541544437
2827,0.2443792819
2828,0.2443792819
2829,0.2346040964
2830,0.2639296054
2831,0.2932551193
2832,0.2932551193
2833,0.2932551193
2834,0.2737047910
2835,0.2932551193
2836,0.2541544437
2837,0.2443792819
2838,0.2150537729
2839,0.2443792819
2840,0.2248289346
2841,0.2248289346
2842,0.2639296054
2843,0.2639296054
2844,0.2541544437
2845,0.2639296054
2846,0.2639296054
2847,0.2932551193
2848,0.2639296054
2849,0.2834799575
2850,0.3128054618
2851,0.2932551193
2852,0.2737047910
2853,0.2541544437
2854,0.2737047910
2855,0.2639296054
2856,0.2541544437
2857,0.2443792819
2858,0.2541544437
2859,0.3128054618
2860,0.3421309947
2861,0.3225806236
2862,0.3616813421
2863,0.3519061565
2864,0.3519061565
2865,0.3128054618
2866,0.3616813421
2867,0.3519061565
2868,0.3616813421
2869,0.3519061565
2870,0.3421309947
2871,0.3225806236
2872,0.3128054618
2873,0.3128054618
2874,0.2737047910
2875,0.2639296054
2876,0.2541544437
2877,0.2541544437
2878,0.2443792819
2879,0.2541544437
2880,0.2639296054
2881,0.2541544437
2882,0.2541544437
2883,0.2346040964
2884,0.2150537729
2885,0.2248289346
2886,0.2150537729
2887,0.2052785873
2888,0.2248289346
2889,0.2443792819
2890,0.2443792819
2891,0.2248289346
2892,0.2248289346
2893,0.2346040964
2894,0.2248289346
2895,0.2346040964
2896,0.2541544437
2897,0.2737047910
2898,0.2541544437
2899,0.2541544437
2900,0.2737047910
2901,0.2541544437
2902,0.2737047910
2903,0.2834799575
2904,0.2834799575
2905,0.3128054618
2906,0.3225806236
2907,0.3030303001
2908,0.3323558330
2909,0.3519061565
2910,0.3421309947
2911,0.3421309947
2912,0.3714565038
2913,0.4007820129
2914,0.4594330310
2915,0.5278592109
2916,0.4887585639
2917,0.4789833545
2918,0.4985337257
2919,0.5083088874
2920,0.5571847438
2921,0.5278592109
2922,0.5376344203
2923,0.5278592109
2924,0.5180840492
2925,0.5278592109
2926,0.5669599056
2927,0.5474095821
2928,0.6353860855
2929,0.8113391876
2930,0.8113391876
2931,0.8308895111
2932,0.8211143493
2933,0.7526881694
2934,0.6940371513
2935,0.6842619895
2936,0.6940371513
2937,0.7429130077
2938,0.7722384929
2939,0.8211143493
2940,0.7917888641
2941,0.8797654151
2942,0.8993157386
2943,0.8602150917
2944,0.8602150917
2945,0.8211143493
2946,0.8602150917
2947,0.8895405769
2948,0.9481915473
2949,1.0948191833
2950,1.1045943498
2951,1.0557184219
2952,1.0263929367
2953,0.9188660621
2954,0.8895405769
2955,0.8993157386
2956,0.8504399299
2957,0.8504399299
2958,0.9481915473
2959,1.0459432601
2960,0.9677418708
2961,1.0654937028
2962,1.0361680984
2963,1.0459432601
2964,0.9481915473
2965,0.9481915473
2966,1.0459432601
2967,1.0557184219
2968,1.0361680984
2969,1.3489736318
2970,1.3196481466
2971,1.2414467334
2972,1.2414467334
2973,1.2218964099
2974,1.1730204820
2975,1.0459432601
2976,0.9677418708
2977,0.8602150917
2978,0.7820136547
2979,0.6744868278
2980,0.6158357620
2981,0.5962854385
2982,0.5083088874
2983,0.4594330310
2984,0.4007820129
2985,0.3616813421
2986,0.3225806236
2987,0.3225806236
2988,0.3128054618
2989,0.3128054618
2990,0.3128054618
2991,0.3323558330
2992,0.3421309947
2993,0.3323558330
2994,0.3225806236
2995,0.3128054618
2996,0.3421309947
2997,0.3323558330
2998,0.3225806236
2999,0.3128054618
3000,0.3128054618
3001,0.6744868278
3002,0.6060606002
3003,0.5376344203
3004,0.4496578693
3005,0.4594330310
3006,0.3910068321
3007,0.3323558330
3008,0.3030303001
3009,0.3030303001
3010,0.2834799575
3011,0.2541544437
3012,0.2443792819
3013,0.2443792819
3014,0.2443792819
3015,0.2443792819
3016,0.2639296054
3017,0.2932551193
3018,0.2639296054
3019,0.2443792819
3020,0.2541544437
3021,0.2248289346
3022,0.2346040964
3023,0.2443792819
3024,0.2443792819
3025,0.2346040964
3026,0.2150537729
3027,0.2639296054
3028,0.2639296054
3029,0.2541544437
3030,0.2639296054
3031,0.2639296054
3032,0.2541544437
3033,0.2443792819
3034,0.2150537729
3035,0.1955034160
3036,0.2052785873
3037,0.1857282543
3038,0.1857282543
3039,0.1857282543
3040,0.1955034160
3041,0.1955034160
3042,0.2052785873
3043,0.2052785873
3044,0.2150537729
3045,0.2052785873
3046,0.2052785873
3047,0.1955034160
3048,0.1759530782
3049,0.1759530782
3050,0.1759530782
3051,0.1955034160
3052,0.1857282543
3053,0.1759530782
3054,0.1759530782
3055,0.1759530782
3056,0.1759530782
3057,0.1564027309
3058,0.1466275596
3059,0.1955034160
3060,0.2052785873
3061,0.1857282543
3062,0.1857282543
3063,0.1857282543
3064,0.1857282543
3065,0.2052785873
3066,0.2150537729
3067,0.2052785873
3068,0.2248289346
3069,0.2052785873
3070,0.2150537729
3071,0.2052785873
3072,0.2052785873
3073,0.2150537729
3074,0.2248289346
3075,0.2150537729
3076,0.2150537729
3077,0.2052785873
3078,0.1857282543
3079,0.2150537729
3080,0.2639296054
3081,0.2834799575
3082,0.2639296054
3083,0.2737047910
3084,0.2639296054
3085,0.2834799575
3086,0.2639296054
3087,0.2834799575
3088,0.2737047910
3089,0.2541544437
3090,0.2541544437
3091,0.2541544437
3092,0.2346040964
3093,0.2443792819
3094,0.2541544437
3095,0.2443792819
3096,0.2443792819
3097,0.2443792819
3098,0.2639296054
3099,0.2541544437
3100,0.2639296054
3101,0.2443792819
3102,0.2346040964
3103,0.2737047910
3104,0.2541544437
3105,0.2443792819
3106,0.2443792819
3107,0.2443792819
3108,0.2443792819
3109,0.2248289346
3110,0.2248289346
3111,0.2150537729
3112,0.2346040964
3113,0.2541544437
3114,0.2541544437
3115,0.2443792819
3116,0.2443792819
3117,0.2541544437
3118,0.2346040964
3119,0.2248289346
3120,0.2052785873
3121,0.1857282543
3122,0.1857282543
3123,0.2150537729
3124,0.2150537729
3125,0.2443792819
3126,0.2443792819
3127,0.2443792819
3128,0.2248289346
3129,0.2248289346
3130,0.2541544437
3131,0.2639296054
3132,0.2737047910
3133,0.2932551193
3134,0.3128054618
3135,0.3128054618
3136,0.3225806236
3137,0.3421309947
3138,0.3030303001
3139,0.2737047910
3140,0.2737047910
3141,0.2932551193
3142,0.3128054618
3143,0.3519061565
3144,0.3421309947
3145,0.3519061565
3146,0.3323558330
3147,0.3421309947
3148,0.4398827075
3149,0.4301075458
3150,0.4594330310
3151,0.5376344203
3152,0.5571847438
3153,0.5474095821
3154,0.5669599056
3155,0.5767350673
3156,0.5767350673
3157,0.6060606002
3158,0.6256109237
3159,0.6353860855
3160,0.7233626842
3161,0.6842619895
3162,0.6353860855
3163,0.5767350673
3164,0.5571847438
3165,0.6549364089
3166,0.6842619895
3167,0.7135874748
3168,0.6842619895
3169,0.6940371513
3170,0.6842619895
3171,0.6353860855
3172,0.7624633312
3173,0.7429130077
3174,0.7135874748
3175,0.7429130077
3176,0.6451612472
3177,0.6647116661
3178,0.7722384929
3179,0.7624633312
3180,0.7526881694
3181,0.7331378459
3182,0.6647116661
3183,0.7135874748
3184,0.6549364089
3185,0.8308895111
3186,0.7624633312
3187,0.6744868278
3188,0.6940371513
3189,0.6549364089
3190,0.5767350673
3191,0.4887585639
3192,0.4301075458
3193,0.4007820129
3194,0.3714565038
3195,0.3225806236
3196,0.2932551193
3197,0.2932551193
3198,0.3225806236
3199,0.3128054618
3200,0.3030303001
3201,0.2932551193
3202,0.3030303001
3203,0.3128054618
3204,0.3030303001
3205,0.3421309947
3206,0.3812316703
3207,0.3714565038
3208,0.3616813421
3209,0.3421309947
3210,0.3812316703
3211,0.3812316703
3212,0.3616813421
3213,0.3421309947
3214,0.3616813421
3215,0.3421309947
3216,0.3128054618
3217,0.2932551193
3218,0.3128054618
3219,0.2932551193
3220,0.2932551193
3221,0.2932551193
3222,0.2737047910
3223,0.2737047910
3224,0.2541544437
3225,0.2541544437
3226,0.2541544437
3227,0.2541544437
3228,0.2443792819
3229,0.2443792819
3230,0.2541544437
3231,0.2541544437
3232,0.2443792819
3233,0.2541544437
3234,0.2443792819
3235,0.2443792819
3236,0.2443792819
3237,0.2639296054
3238,0.2248289346
3239,0.2248289346
3240,0.2346040964
3241,0.2150537729
3242,0.1955034160
3243,0.2052785873
3244,0.1955034160
3245,0.2052785873
3246,0.2150537729
3247,0.2248289346
3248,0.2346040964
3249,0.2346040964
3250,0.2248289346
3251,0.2541544437
3252,0.2346040964
3253,0.2443792819
3254,0.2248289346
3255,0.2541544437
3256,0.2541544437
3257,0.2541544437
3258,0.2541544437
3259,0.2541544437
3260,0.2346040964
3261,0.2346040964
3262,0.2346040964
3263,0.2443792819
3264,0.2346040964
3265,0.2541544437
3266,0.2346040964
3267,0.2150537729
3268,0.2052785873
3269,0.2346040964
3270,0.2346040964
3271,0.2248289346
3272,0.2150537729
3273,0.1955034160
3274,0.1955034160
3275,0.1857282543
3276,0.2248289346
3277,0.2150537729
3278,0.2150537729
3279,0.1955034160
3280,0.1955034160
3281,0.1955034160
3282,0.1955034160
3283,0.2052785873
3284,0.2248289346
3285,0.2541544437
3286,0.2639296054
3287,0.3030303001
3288,0.3519061565
3289,0.3225806236
3290,0.3128054618
3291,0.2932551193
3292,0.2834799575
3293,0.2541544437
3294,0.2346040964
3295,0.2639296054
3296,0.2541544437
3297,0.2346040964
3298,0.2541544437
3299,0.2346040964
3300,0.2346040964
3301,0.2443792819
3302,0.2346040964
3303,0.2248289346
3304,0.2248289346
3305,0.2541544437
3306,0.2346040964
3307,0.2346040964
3308,0.2443792819
3309,0.2443792819
3310,0.2052785873
3311,0.2052785873
3312,0.2248289346
3313,0.2248289346
3314,0.2248289346
3315,0.2346040964
3316,0.2248289346
3317,0.2443792819
3318,0.2052785873
3319,0.2150537729
3320,0.2248289346
3321,0.2248289346
3322,0.2346040964
3323,0.2443792819
3324,0.2346040964
3325,0.2541544437
3326,0.2541544437
3327,0.2639296054
3328,0.2737047910
3329,0.2737047910
3330,0.2639296054
3331,0.2443792819
3332,0.2541544437
3333,0.2443792819
3334,0.2248289346
3335,0.2248289346
3336,0.2052785873
3337,0.2052785873
3338,0.1955034160
3339,0.2150537729
3340,0.2150537729
3341,0.2052785873
3342,0.2052785873
3343,0.2150537729
3344,0.2248289346
3345,0.2248289346
3346,0.2150537729
3347,0.2150537729
3348,0.2443792819
3349,0.2541544437
3350,0.2737047910
3351,0.2737047910
3352,0.3030303001
3353,0.2932551193
3354,0.3128054618
3355,0.3128054618
3356,0.2834799575
3357,0.3030303001
3358,0.3225806236
3359,0.3030303001
3360,0.3128054618
3361,0.3421309947
3362,0.4105571746
3363,0.4496578693
3364,0.4301075458
3365,0.4496578693
3366,0.5278592109
3367,0.5571847438
3368,0.5865102291
3369,0.6256109237
3370,0.6158357620
3371,0.5962854385
3372,0.6060606002
3373,0.7331378459
3374,0.7038123130
3375,0.7038123130
3376,0.7429130077
3377,0.6940371513
3378,0.6549364089
3379,0.7233626842
3380,0.7917888641
3381,0.7331378459
3382,0.8113391876
3383,0.8113391876
3384,0.8113391876
3385,0.8993157386
3386,0.8797654151
3387,0.8406646728
3388,0.8504399299
3389,0.8895405769
3390,0.8211143493
3391,0.7526881694
3392,0.7233626842
3393,0.7135874748
3394,0.6940371513
3395,0.7135874748
3396,0.6549364089
3397,0.6451612472
3398,0.6842619895
3399,0.6647116661
3400,0.6451612472
3401,0.6647116661
3402,0.5865102291
3403,0.5278592109
3404,0.4692081928
3405,0.4301075458
3406,0.3812316703
3407,0.3421309947
3408,0.3128054618
3409,0.2834799575
3410,0.2541544437
3411,0.2541544437
3412,0.2443792819
3413,0.2639296054
3414,0.2443792819
3415,0.2932551193
3416,0.3225806236
3417,0.3225806236
3418,0.3323558330
3419,0.3225806236
3420,0.3714565038
3421,0.3714565038
3422,0.3812316703
3423,0.3519061565
3424,0.3616813421
3425,0.3616813421
3426,0.3225806236
3427,0.2834799575
3428,0.2639296054
3429,0.2639296054
3430,0.2443792819
3431,0.2248289346
3432,0.2052785873
3433,0.1955034160
3434,0.1955034160
3435,0.2150537729
3436,0.1955034160
3437,0.1955034160
3438,0.1955034160
3439,0.2346040964
3440,0.2443792819
3441,0.2346040964
3442,0.2639296054
3443,0.2346040964
3444,0.2443792819
3445,0.2346040964
3446,0.2737047910
3447,0.2834799575
3448,0.2834799575
3449,0.2541544437
3450,0.2443792819
3451,0.2443792819
3452,0.2737047910
3453,0.2639296054
3454,0.2639296054
3455,0.2834799575
3456,0.2737047910
3457,0.2932551193
3458,0.2541544437
3459,0.2443792819
3460,0.2150537729
3461,0.2248289346
3462,0.2248289346
3463,0.2443792819
3464,0.2541544437
3465,0.2346040964
3466,0.2639296054
3467,0.2541544437
3468,0.2541544437
3469,0.2248289346
3470,0.2248289346
3471,0.2052785873
3472,0.2150537729
3473,0.2443792819
3474,0.2639296054
3475,0.2737047910
3476,0.2639296054
3477,0.2443792819
3478,0.2443792819
3479,0.2346040964
3480,0.2346040964
3481,0.2248289346
3482,0.2248289346
3483,0.2443792819
3484,0.2248289346
3485,0.2150537729
3486,0.2150537729
3487,0.2150537729
3488,0.2150537729
3489,0.2052785873
3490,0.1955034160
3491,0.1955034160
3492,0.2150537729
3493,0.2052785873
3494,0.1857282543
3495,0.1857282543
3496,0.1857282543
3497,0.1759530782
3498,0.2052785873
3499,0.1955034160
3500,0.1857282543
3501,0.1955034160
3502,0.1955034160
3503,0.1857282543
3504,0.2052785873
3505,0.2052785873
3506,0.2150537729
3507,0.2346040964
3508,0.2248289346
3509,0.2346040964
3510,0.2150537729
3511,0.2346040964
3512,0.2443792819
3513,0.2443792819
3514,0.2443792819
3515,0.2346040964
3516,0.2346040964
3517,0.2346040964
3518,0.2346040964
3519,0.2639296054
3520,0.2346040964
3521,0.2248289346
3522,0.2052785873
3523,0.2052785873
3524,0.2150537729
3525,0.2346040964
3526,0.2248289346
3527,0.2443792819
3528,0.2248289346
3529,0.2346040964
3530,0.2248289346
3531,0.2248289346
3532,0.2150537729
3533,0.2052785873
3534,0.2052785873
3535,0.1955034160
3536,0.1955034160
3537,0.1857282543
3538,0.1857282543
3539,0.1857282543
3540,0.2150537729
3541,0.2346040964
3542,0.2639296054
3543,0.2541544437
3544,0.2639296054
3545,0.2541544437
3546,0.2541544437
3547,0.2248289346
3548,0.2346040964
3549,0.2150537729
3550,0.1955034160
3551,0.1857282543
3552,0.1759530782
3553,0.1661779165
3554,0.1857282543
3555,0.1857282543
3556,0.2052785873
3557,0.2639296054
3558,0.2737047910
3559,0.2443792819
3560,0.2346040964
3561,0.2150537729
3562,0.2052785873
3563,0.2052785873
3564,0.1955034160
3565,0.2248289346
3566,0.2248289346
3567,0.2248289346
3568,0.2248289346
3569,0.2346040964
3570,0.2541544437
3571,0.2834799575
3572,0.3030303001
3573,0.3421309947
3574,0.4105571746
3575,0.4594330310
3576,0.5767350673
3577,0.5278592109
3578,0.5083088874
3579,0.5669599056
3580,0.6158357620
3581,0.6158357620
3582,0.5767350673
3583,0.5767350673
3584,0.6060606002
3585,0.6647116661
3586,0.6353860855
3587,0.6744868278
3588,0.6940371513
3589,0.6744868278
3590,0.7526881694
3591,0.7331378459
3592,0.6842619895
3593,0.7526881694
3594,0.8406646728
3595,0.8015640258
3596,0.8308895111
3597,0.8113391876
3598,0.6940371513
3599,0.6353860855
3600,0.6744868278
3601,0.7233626842
3602,0.6549364089
3603,0.6549364089
3604,0.7038123130
3605,0.6256109237
3606,0.5962854385
3607,0.5571847438
3608,0.4985337257
3609,0.5083088874
3610,0.4887585639
3611,0.4203323364
3612,0.4007820129
3613,0.3421309947
3614,0.3323558330
3615,0.2932551193
3616,0.2639296054
3617,0.2639296054
3618,0.2443792819
3619,0.2443792819
3620,0.2443792819
3621,0.2443792819
3622,0.2639296054
3623,0.3421309947
3624,0.4203323364
3625,0.4594330310
3626,0.4985337257
3627,0.4692081928
3628,0.4301075458
3629,0.4203323364
3630,0.4007820129
3631,0.3812316703
3632,0.3519061565
3633,0.3421309947
3634,0.3323558330
3635,0.3128054618
3636,0.3225806236
3637,0.3030303001
3638,0.3128054618
3639,0.3225806236
3640,0.3128054618
3641,0.3030303001
3642,0.2834799575
3643,0.2737047910
3644,0.3030303001
3645,0.3421309947
3646,0.3128054618
3647,0.2737047910
3648,0.2639296054
3649,0.2834799575
3650,0.2639296054
3651,0.2737047910
3652,0.2443792819
3653,0.2346040964
3654,0.2443792819
3655,0.2443792819
3656,0.2346040964
3657,0.2248289346
3658,0.2639296054
3659,0.2639296054
3660,0.2443792819
3661,0.2346040964
3662,0.2346040964
3663,0.2443792819
3664,0.2248289346
3665,0.2346040964
3666,0.2248289346
3667,0.2052785873
3668,0.2346040964
3669,0.2443792819
3670,0.2443792819
3671,0.2443792819
3672,0.2346040964
3673,0.2443792819
3674,0.2834799575
3675,0.2932551193
3676,0.2932551193
3677,0.3030303001
3678,0.3030303001
3679,0.2737047910
3680,0.2639296054
3681,0.2443792819
3682,0.2443792819
3683,0.2248289346
3684,0.2150537729
3685,0.2150537729
3686,0.2052785873
3687,0.2052785873
3688,0.2052785873
3689,0.2052785873
3690,0.1955034160
3691,0.1857282543
3692,0.2052785873
3693,0.2052785873
3694,0.1857282543
3695,0.1857282543
3696,0.1857282543
3697,0.2052785873
3698,0.1955034160
3699,0.2150537729
3700,0.2541544437
3701,0.2737047910
3702,0.2834799575
3703,0.2639296054
3704,0.2834799575
3705,0.3128054618
3706,0.3323558330
3707,0.3030303001
3708,0.3030303001
3709,0.2932551193
3710,0.2834799575
3711,0.2639296054
3712,0.2932551193
3713,0.2834799575
3714,0.2639296054
3715,0.2443792819
3716,0.2639296054
3717,0.2737047910
3718,0.2639296054
3719,0.2639296054
3720,0.2639296054
3721,0.2346040964
3722,0.2346040964
3723,0.2052785873
3724,0.2248289346
3725,0.2541544437
3726,0.2834799575
3727,0.3225806236
3728,0.3421309947
3729,0.3616813421
3730,0.3519061565
3731,0.3910068321
3732,0.4398827075
3733,0.4594330310
3734,0.4789833545
3735,0.4203323364
3736,0.4105571746
3737,0.3812316703
3738,0.3519061565
3739,0.3812316703
3740,0.3616813421
3741,0.3323558330
3742,0.3225806236
3743,0.3421309947
3744,0.3225806236
3745,0.3421309947
3746,0.3519061565
3747,0.3225806236
3748,0.3128054618
3749,0.3519061565
3750,0.3616813421
3751,0.3421309947
3752,0.3323558330
3753,0.3030303001
3754,0.3421309947
3755,0.3323558330
3756,0.3323558330
3757,0.3323558330
3758,0.3323558330
3759,0.3128054618
3760,0.3128054618
3761,0.3323558330
3762,0.3030303001
3763,0.2834799575
3764,0.3030303001
3765,0.3030303001
3766,0.3225806236
3767,0.2932551193
3768,0.2443792819
3769,0.2443792819
3770,0.2150537729
3771,0.2052785873
3772,0.2834799575
3773,0.2737047910
3774,0.2541544437
3775,0.3030303001
3776,0.3616813421
3777,0.4007820129
3778,0.4301075458
3779,0.4105571746
3780,0.4301075458
3781,0.4496578693
3782,0.4692081928
3783,0.5474095821
3784,0.4789833545
3785,0.5767350673
3786,0.5865102291
3787,0.5767350673
3788,0.5669599056
3789,0.5767350673
3790,0.6158357620
3791,0.6158357620
3792,0.6549364089
3793,0.6256109237
3794,0.6842619895
3795,0.6549364089
3796,0.6744868278
3797,0.6744868278
3798,0.7038123130
3799,0.7526881694
3800,0.7038123130
3801,0.7722384929
3802,0.7429130077
3803,0.6647116661
3804,0.7624633312
3805,0.8211143493
3806,0.7820136547
3807,0.7624633312
3808,0.7917888641
3809,0.7233626842
3810,0.7038123130
3811,0.7135874748
3812,0.7917888641
3813,0.7722384929
3814,0.7429130077
3815,0.6353860855
3816,0.6842619895
3817,0.8113391876
3818,0.7429130077
3819,0.7429130077
3820,0.6744868278
3821,0.6256109237
3822,0.6158357620
3823,0.5571847438
3824,0.5083088874
3825,0.4594330310
3826,0.4105571746
3827,0.3421309947
3828,0.3128054618
3829,0.2834799575
3830,0.2737047910
3831,0.2443792819
3832,0.2639296054
3833,0.2932551193
3834,0.2932551193
3835,0.3030303001
3836,0.3225806236
3837,0.3225806236
3838,0.3714565038
3839,0.3714565038
3840,0.3910068321
3841,0.4203323364
3842,0.3812316703
3843,0.4105571746
3844,0.4203323364
3845,0.3910068321
3846,0.3812316703
3847,0.3421309947
3848,0.3421309947
3849,0.3225806236
3850,0.2834799575
3851,0.2737047910
3852,0.2737047910
3853,0.2541544437
3854,0.2248289346
3855,0.2150537729
3856,0.2443792819
3857,0.2346040964
3858,0.2150537729
3859,0.2443792819
3860,0.2443792819
3861,0.2737047910
3862,0.2639296054
3863,0.3225806236
3864,0.2834799575
3865,0.2639296054
3866,0.2737047910
3867,0.2639296054
3868,0.2443792819
3869,0.2443792819
3870,0.2737047910
3871,0.2639296054
3872,0.2541544437
3873,0.2443792819
3874,0.3030303001
3875,0.2932551193
3876,0.3128054618
3877,0.2834799575
3878,0.2639296054
3879,0.2639296054
3880,0.2346040964
3881,0.2541544437
3882,0.2346040964
3883,0.2248289346
3884,0.2443792819
3885,0.2443792819
3886,0.2346040964
3887,0.2346040964
3888,0.2639296054
3889,0.2346040964
3890,0.2443792819
3891,0.2248289346
3892,0.2150537729
3893,0.2052785873
3894,0.2052785873
3895,0.2248289346
3896,0.2150537729
3897,0.2150537729
3898,0.1955034160
3899,0.2150537729
3900,0.2248289346
3901,0.2248289346
3902,0.2346040964
3903,0.2248289346
3904,0.2248289346
3905,0.2052785873
3906,0.2443792819
3907,0.2346040964
3908,0.2346040964
3909,0.2443792819
3910,0.2541544437
3911,0.2639296054
3912,0.2834799575
3913,0.2639296054
3914,0.2639296054
3915,0.2834799575
3916,0.2541544437
3917,0.2639296054
3918,0.2639296054
3919,0.2541544437
3920,0.2150537729
3921,0.2150537729
3922,0.2150537729
3923,0.2150537729
3924,0.1955034160
3925,0.2150537729
3926,0.2639296054
3927,0.2248289346
3928,0.2150537729
3929,0.3030303001
3930,0.2932551193
3931,0.2737047910
3932,0.2443792819
3933,0.2443792819
3934,0.2639296054
3935,0.2834799575
3936,0.2443792819
3937,0.2834799575
3938,0.2737047910
3939,0.2639296054
3940,0.2541544437
3941,0.2346040964
3942,0.2443792819
3943,0.2737047910
3944,0.2834799575
3945,0.2639296054
3946,0.2639296054
3947,0.2737047910
3948,0.2639296054
3949,0.2639296054
3950,0.2541544437
3951,0.2346040964
3952,0.2248289346
3953,0.2150537729
3954,0.2248289346
3955,0.2443792819
3956,0.2248289346
3957,0.2346040964
3958,0.2150537729
3959,0.2150537729
3960,0.2052785873
3961,0.1857282543
3962,0.2052785873
3963,0.2346040964
3964,0.2150537729
3965,0.2248289346
3966,0.2443792819
3967,0.2541544437
3968,0.2834799575
3969,0.2639296054
3970,0.2443792819
3971,0.2248289346
3972,0.1955034160
3973,0.2443792819
3974,0.2834799575
3975,0.2737047910
3976,0.2737047910
3977,0.2639296054
3978,0.2639296054
3979,0.2443792819
3980,0.2248289346
3981,0.2052785873
3982,0.2052785873
3983,0.1955034160
3984,0.1759530782
3985,0.1759530782
3986,0.1759530782
3987,0.2150537729
3988,0.2346040964
3989,0.3030303001
3990,0.3616813421
3991,0.3812316703
3992,0.3616813421
3993,0.3519061565
3994,0.4203323364
3995,0.4594330310
3996,0.4692081928
3997,0.4398827075
3998,0.4594330310
3999,0.4203323364
0,0.4496578693
1,1.5640273094
2,1.3978494453
3,1.2218964099
4,1.0948191833
5,0.9775171279
6,0.8699902534
7,0.8211143493
8,0.7429130077
9,0.7135874748
10,0.6549364089
11,0.6060606002
12,0.5865102291
13,0.5669599056
14,0.5474095821
15,0.5180840492
16,0.5962854385
17,0.5376344203
18,0.5376344203
19,0.5767350673
20,0.5474095821
21,0.5571847438
22,0.5571847438
23,0.5571847438
24,0.5767350673
25,0.5767350673
26,0.6647116661
27,0.6549364089
28,0.7135874748
29,0.7038123130
30,0.8504399299
31,0.7722384929
32,0.7233626842
33,0.7135874748
34,0.6842619895
35,0.6647116661
36,0.6647116661
37,0.5865102291
38,0.5376344203
39,0.4789833545
40,0.4496578693
41,0.4105571746
42,0.3714565038
43,0.3519061565
44,0.3128054618
45,0.3030303001
46,0.2639296054
47,0.2932551193
48,0.2932551193
49,0.3128054618
50,0.3323558330
51,0.3714565038
52,0.3714565038
53,0.3519061565
54,0.3128054618
55,0.3323558330
56,0.3030303001
57,0.3812316703
58,0.3323558330
59,0.3225806236
60,0.2932551193
61,0.2541544437
62,0.2346040964
63,0.2541544437
64,0.2248289346
65,0.1955034160
66,0.1857282543
67,0.1759530782
68,0.1661779165
69,0.1759530782
70,0.1661779165
71,0.1661779165
72,0.1564027309
73,0.1564027309
74,0.1466275596
75,0.1466275596
76,0.1368523955
77,0.1270772218
78,0.1270772218
79,0.1173020482
80,0.1173020482
81,0.1270772218
82,0.1368523955
83,0.1270772218
84,0.1368523955
85,0.1270772218
86,0.1368523955
87,0.1270772218
88,0.1173020482
89,0.1075268864
90,0.1075268864
91,0.1173020482
92,0.1075268864
93,0.1270772218
94,0.1270772218
95,0.1173020482
96,0.1173020482
97,0.1270772218
98,0.1270772218
99,0.1368523955
100,0.1466275596
101,0.1368523955
102,0.1270772218
103,0.1173020482
104,0.1270772218
105,0.1270772218
106,0.1173020482
107,0.1270772218
108,0.1173020482
109,0.1368523955
110,0.1368523955
111,0.1270772218
112,0.1466275596
113,0.1466275596
114,0.1466275596
115,0.1368523955
116,0.1368523955
117,0.1173020482
118,0.1173020482
119,0.1270772218
120,0.1270772218
121,0.1270772218
122,0.1173020482
123,0.1368523955
124,0.1270772218
125,0.1466275596
126,0.1759530782
127,0.1466275596
128,0.1368523955
129,0.1270772218
130,0.1368523955
131,0.1564027309
132,0.1564027309
133,0.1466275596
134,0.1466275596
135,0.1857282543
136,0.2443792819
137,0.2150537729
138,0.2052785873
139,0.2150537729
140,0.1955034160
141,0.1857282543
142,0.1564027309
143,0.1564027309
144,0.1466275596
145,0.1466275596
146,0.1368523955
147,0.1173020482
148,0.1173020482
149,0.1075268864
150,0.1075268864
151,0.1075268864
152,0.1075268864
153,0.1075268864
154,0.0977517032
155,0.1075268864
156,0.0977517032
157,0.0782013654
158,0.0879765415
159,0.0782013654
160,0.0879765415
161,0.0782013654
162,0.0684261989
163,0.0782013654
164,0.0879765415
165,0.0977517032
166,0.0977517032
167,0.0879765415
168,0.0782013654
169,0.0782013654
170,0.0782013654
171,0.0782013654
172,0.0879765415
173,0.0879765415
174,0.0879765415
175,0.0879765415
176,0.0782013654
177,0.0684261989
178,0.0684261989
179,0.0782013654
180,0.0782013654
181,0.0684261989
182,0.0684261989
183,0.0782013654
184,0.0684261989
185,0.0684261989
186,0.0684261989
187,0.0782013654
188,0.0684261989
189,0.0586510229
190,0.0586510229
191,0.0684261989
192,0.0586510229
193,0.0586510229
194,0.0586510229
195,0.0586510229
196,0.0488758516
197,0.0391006832
198,0.0293255119
199,0.0293255119
200,0.0293255119
201,0.0293255119
202,0.0195503416
203,0.0195503416
204,0.0097751703
205,0.0195503416
206,0.0293255119
207,0.0293255119
208,0.0586510229
209,0.0782013654
210,0.0782013654
211,0.0977517032
212,0.1075268864
213,0.1075268864
214,0.1466275596
215,0.1564027309
216,0.1857282543
217,0.2248289346
218,0.2639296054
219,0.2737047910
220,0.2541544437
221,0.2639296054
222,0.2737047910
223,0.2737047910
224,0.2834799575
225,0.2834799575
226,0.3030303001
227,0.3030303001
228,0.3225806236
229,0.3128054618
230,0.3714565038
231,0.3421309947
232,0.3225806236
233,0.3616813421
234,0.3616813421
235,0.3812316703
236,0.3910068321
237,0.4007820129
238,0.4105571746
239,0.4789833545
240,0.4692081928
241,0.5083088874
242,0.4887585639
243,0.4594330310
244,0.5376344203
245,0.5767350673
246,0.5767350673
247,0.6256109237
248,0.6060606002
249,0.5474095821
250,0.6451612472
251,0.5962854385
252,0.6060606002
253,0.5962854385
254,0.5376344203
255,0.5767350673
256,0.5571847438
257,0.5962854385
258,0.5669599056
259,0.5474095821
260,0.5180840492
261,0.4594330310
262,0.4203323364
263,0.3910068321
264,0.3616813421
265,0.3225806236
266,0.3323558330
267,0.3225806236
268,0.2932551193
269,0.2737047910
270,0.2639296054
271,0.2443792819
272,0.2248289346
273,0.2346040964
274,0.2248289346
275,0.2248289346
276,0.2150537729
277,0.2052785873
278,0.1857282543
279,0.2346040964
280,0.1955034160
281,0.2150537729
282,0.2052785873
283,0.1955034160
284,0.2248289346
285,0.2248289346
286,0.1955034160
287,0.2150537729
288,0.1955034160
289,0.1759530782
290,0.1857282543
291,0.1759530782
292,0.1857282543
293,0.1661779165
294,0.1466275596
295,0.1466275596
296,0.1368523955
297,0.1661779165
298,0.1661779165
299,0.1564027309
300,0.1661779165
301,0.1759530782
302,0.1564027309
303,0.1466275596
304,0.1759530782
305,0.1661779165
306,0.1466275596
307,0.1368523955
308,0.1368523955
309,0.1466275596
310,0.1270772218
311,0.1270772218
312,0.1173020482
313,0.1270772218
314,0.1075268864
315,0.1173020482
316,0.1270772218
317,0.1173020482
318,0.1368523955
319,0.1368523955
320,0.1564027309
321,0.2443792819
322,0.3128054618
323,0.2932551193
324,0.2639296054
325,0.2150537729
326,0.2052785873
327,0.1857282543
328,0.1661779165
329,0.1661779165
330,0.1661779165
331,0.1466275596
332,0.1466275596
333,0.1466275596
334,0.1270772218
335,0.1466275596
336,0.1661779165
337,0.1466275596
338,0.1368523955
339,0.1368523955
340,0.1368523955
341,0.1368523955
342,0.1270772218
343,0.1466275596
344,0.1564027309
345,0.1466275596
346,0.1270772218
347,0.1173020482
348,0.1270772218
349,0.1466275596
350,0.1368523955
351,0.1368523955
352,0.1270772218
353,0.1368523955
354,0.1270772218
355,0.1173020482
356,0.1173020482
357,0.1270772218
358,0.1075268864
359,0.0879765415
360,0.0879765415
361,0.1270772218
362,0.1270772218
363,0.1368523955
364,0.1368523955
365,0.1173020482
366,0.1075268864
367,0.1075268864
368,0.1075268864
369,0.1075268864
370,0.1075268864
371,0.0977517032
372,0.1075268864
373,0.1075268864
374,0.1075268864
375,0.1075268864
376,0.1173020482
377,0.0977517032
378,0.0977517032
379,0.0879765415
380,0.0977517032
381,0.1075268864
382,0.1075268864
383,0.1075268864
384,0.0977517032
385,0.0879765415
386,0.0879765415
387,0.1075268864
388,0.1075268864
389,0.1075268864
390,0.1075268864
391,0.1173020482
392,0.1075268864
393,0.1173020482
394,0.1173020482
395,0.1368523955
396,0.1466275596
397,0.1466275596
398,0.1466275596
399,0.1270772218
400,0.1173020482
401,0.1173020482
402,0.0977517032
403,0.0977517032
404,0.0879765415
405,0.0879765415
406,0.0879765415
407,0.0782013654
408,0.0782013654
409,0.0977517032
410,0.0782013654
411,0.0879765415
412,0.0977517032
413,0.0977517032
414,0.0977517032
415,0.0879765415
416,0.0782013654
417,0.0782013654
418,0.0782013654
419,0.0879765415
420,0.0977517032
421,0.0879765415
422,0.0879765415
423,0.0782013654
424,0.0879765415
425,0.0879765415
426,0.0782013654
427,0.0684261989
428,0.0586510229
429,0.0586510229
430,0.0684261989
431,0.0684261989
432,0.0586510229
433,0.0586510229
434,0.0488758516
435,0.0391006832
436,0.0391006832
437,0.0391006832
438,0.0391006832
439,0.0391006832
440,0.0488758516
441,0.0684261989
442,0.0684261989
443,0.0586510229
444,0.0684261989
445,0.0977517032
446,0.0879765415
447,0.1075268864
448,0.0977517032
449,0.1075268864
450,0.1270772218
451,0.1173020482
452,0.1270772218
453,0.1661779165
454,0.1661779165
455,0.2052785873
456,0.2150537729
457,0.2737047910
458,0.2932551193
459,0.3030303001
460,0.2639296054
461,0.3225806236
462,0.3128054618
463,0.2932551193
464,0.3128054618
465,0.3616813421
466,0.3519061565
467,0.4007820129
468,0.4594330310
469,0.4789833545
470,0.4789833545
471,0.4594330310
472,0.4203323364
473,0.4398827075
474,0.4496578693
475,0.4301075458
476,0.4203323364
477,0.4203323364
478,0.4203323364
479,0.4105571746
480,0.4301075458
481,0.4594330310
482,0.4985337257
483,0.5180840492
484,0.5083088874
485,0.5278592109
486,0.5571847438
487,0.5474095821
488,0.5571847438
489,0.5767350673
490,0.6060606002
491,0.6353860855
492,0.6256109237
493,0.6744868278
494,0.6744868278
495,0.6647116661
496,0.6060606002
497,0.5962854385
498,0.6353860855
499,0.6647116661
500,0.6842619895
501,0.7233626842
502,0.7624633312
503,0.7624633312
504,0.6549364089
505,0.6256109237
506,0.6744868278
507,0.6549364089
508,0.6451612472
509,0.5376344203
510,0.4496578693
511,0.4692081928
512,0.4985337257
513,0.4985337257
514,0.4203323364
515,0.4789833545
516,0.4692081928
517,0.4398827075
518,0.3910068321
519,0.3421309947
520,0.3225806236
521,0.3323558330
522,0.3030303001
523,0.3616813421
524,0.3714565038
525,0.3714565038
526,0.3616813421
527,0.3910068321
528,0.4203323364
529,0.3714565038
530,0.3812316703
531,0.3616813421
532,0.3128054618
533,0.3128054618
534,0.2639296054
535,0.2248289346
536,0.2052785873
537,0.1955034160
538,0.1857282543
539,0.1955034160
540,0.1955034160
541,0.2150537729
542,0.1955034160
543,0.1759530782
544,0.1759530782
545,0.1564027309
546,0.1466275596
547,0.1466275596
548,0.1466275596
549,0.1857282543
550,0.2150537729
551,0.2346040964
552,0.2541544437
553,0.2541544437
554,0.3128054618
555,0.3030303001
556,0.2834799575
557,0.2639296054
558,0.2443792819
559,0.2150537729
560,0.2248289346
561,0.2248289346
562,0.2150537729
563,0.2150537729
564,0.2150537729
565,0.2346040964
566,0.2150537729
567,0.1955034160
568,0.1661779165
569,0.1466275596
570,0.1564027309
571,0.1661779165
572,0.1759530782
573,0.1955034160
574,0.2150537729
575,0.1955034160
576,0.1857282543
577,0.1661779165
578,0.2052785873
579,0.2052785873
580,0.2052785873
581,0.1955034160
582,0.1955034160
583,0.1759530782
584,0.1564027309
585,0.1466275596
586,0.1368523955
587,0.1075268864
588,0.1173020482
589,0.1270772218
590,0.1075268864
591,0.1173020482
592,0.1270772218
593,0.1270772218
594,0.1173020482
595,0.1368523955
596,0.1368523955
597,0.1466275596
598,0.1368523955
599,0.1270772218
600,0.1075268864
601,0.0977517032
602,0.1075268864
603,0.1075268864
604,0.1173020482
605,0.1270772218
606,0.1173020482
607,0.1270772218
608,0.1173020482
609,0.1075268864
610,0.0977517032
611,0.0977517032
612,0.1075268864
613,0.0977517032
614,0.0879765415
615,0.0879765415
616,0.0977517032
617,0.1075268864
618,0.1270772218
619,0.1368523955
620,0.1270772218
621,0.1173020482
622,0.1173020482
623,0.0977517032
624,0.0977517032
625,0.1075268864
626,0.1075268864
627,0.1075268864
628,0.1368523955
629,0.1173020482
630,0.1075268864
631,0.1270772218
632,0.1270772218
633,0.1075268864
634,0.1173020482
635,0.1173020482
636,0.1173020482
637,0.0977517032
638,0.1075268864
639,0.1173020482
640,0.1270772218
641,0.1075268864
642,0.1173020482
643,0.1173020482
644,0.1075268864
645,0.0977517032
646,0.1173020482
647,0.1466275596
648,0.1270772218
649,0.1270772218
650,0.1564027309
651,0.1466275596
652,0.1368523955
653,0.1270772218
654,0.1368523955
655,0.1270772218
656,0.1368523955
657,0.1173020482
658,0.1466275596
659,0.1270772218
660,0.1075268864
661,0.1173020482
662,0.0977517032
663,0.1075268864
664,0.1173020482
665,0.1075268864
666,0.0977517032
667,0.0977517032
668,0.1075268864
669,0.0977517032
670,0.0879765415
671,0.0879765415
672,0.0977517032
673,0.0879765415
674,0.0684261989
675,0.0782013654
676,0.0782013654
677,0.0782013654
678,0.0684261989
679,0.0586510229
680,0.0684261989
681,0.0684261989
682,0.0684261989
683,0.0684261989
684,0.0879765415
685,0.0684261989
686,0.0586510229
687,0.0684261989
688,0.0782013654
689,0.0782013654
690,0.0879765415
691,0.0782013654
692,0.0879765415
693,0.0782013654
694,0.0782013654
695,0.0684261989
696,0.0782013654
697,0.0782013654
698,0.0684261989
699,0.0684261989
700,0.0684261989
701,0.0684261989
702,0.0586510229
703,0.0684261989
704,0.0586510229
705,0.0586510229
706,0.0586510229
707,0.0586510229
708,0.0586510229
709,0.0684261989
710,0.0684261989
711,0.0782013654
712,0.0782013654
713,0.0782013654
714,0.0586510229
715,0.0586510229
716,0.0586510229
717,0.0684261989
718,0.0879765415
719,0.0879765415
720,0.0879765415
721,0.0879765415
722,0.0782013654
723,0.0684261989
724,0.0684261989
725,0.0879765415
726,0.0977517032
727,0.1173020482
728,0.1368523955
729,0.1270772218
730,0.1270772218
731,0.1075268864
732,0.0977517032
733,0.0782013654
734,0.1173020482
735,0.1270772218
736,0.1661779165
737,0.1857282543
738,0.1857282543
739,0.2150537729
740,0.2052785873
741,0.2052785873
742,0.2150537729
743,0.2248289346
744,0.2443792819
745,0.2443792819
746,0.2150537729
747,0.2052785873
748,0.2052785873
749,0.1955034160
750,0.1759530782
751,0.1564027309
752,0.1466275596
753,0.1857282543
754,0.2150537729
755,0.2052785873
756,0.1661779165
757,0.1661779165
758,0.1759530782
759,0.1759530782
760,0.1857282543
761,0.1955034160
762,0.1759530782
763,0.1564027309
764,0.1368523955
765,0.1270772218
766,0.1075268864
767,0.1075268864
768,0.1173020482
769,0.1466275596
770,0.1368523955
771,0.1173020482
772,0.0977517032
773,0.0879765415
774,0.1270772218
775,0.1857282543
776,0.2541544437
777,0.2737047910
778,0.2346040964
779,0.2150537729
780,0.2346040964
781,0.2248289346
782,0.2346040964
783,0.2639296054
784,0.2346040964
785,0.2150537729
786,0.2150537729
787,0.2248289346
788,0.3519061565
789,0.4105571746
790,0.3812316703
791,0.4301075458
792,0.4887585639
793,0.5083088874
794,0.4594330310
795,0.5083088874
796,0.6060606002
797,0.5180840492
798,0.4789833545
799,0.4301075458
800,0.3616813421
801,0.3225806236
802,0.3812316703
803,0.3519061565
804,0.3910068321
805,0.3714565038
806,0.3323558330
807,0.3225806236
808,0.3812316703
809,0.4203323364
810,0.4007820129
811,0.3421309947
812,0.2932551193
813,0.2932551193
814,0.3519061565
815,0.3421309947
816,0.2834799575
817,0.2639296054
818,0.2737047910
819,0.2737047910
820,0.2834799575
821,0.2639296054
822,0.2346040964
823,0.2443792819
824,0.2346040964
825,0.1955034160
826,0.1661779165
827,0.1466275596
828,0.1368523955
829,0.1270772218
830,0.1173020482
831,0.0977517032
832,0.0879765415
833,0.0782013654
834,0.0684261989
835,0.0586510229
836,0.0586510229
837,0.0586510229
838,0.0586510229
839,0.0586510229
840,0.0586510229
841,0.0586510229
842,0.0488758516
843,0.0391006832
844,0.0293255119
845,0.0293255119
846,0.0293255119
847,0.0293255119
848,0.0195503416
849,0.0195503416
850,0.0293255119
851,0.0488758516
852,0.0488758516
853,0.0293255119
854,0.0293255119
855,0.0195503416
856,0.0097751703
857,0.0097751703
858,0.0097751703
859,0.0195503416
860,0.0195503416
861,0.0293255119
862,0.0293255119
863,0.0391006832
864,0.0391006832
865,0.0391006832
866,0.0391006832
867,0.0293255119
868,0.0293255119
869,0.0195503416
870,0.0195503416
871,0.0195503416
872,0.0097751703
873,0.0097751703
874,0.0097751703
875,0.0097751703
876,0.0000000000
877,0.0097751703
878,0.0000000000
879,0.0000000000
880,0.0000000000
881,0.0000000000
882,0.0000000000
883,0.0000000000
884,0.0000000000
885,0.0000000000
886,0.0097751703
887,0.0097751703
888,0.0097751703
889,0.0097751703
890,0.0097751703
891,0.0000000000
892,0.0000000000
893,0.0000000000
894,0.0000000000
895,0.0000000000
896,0.0000000000
897,0.0000000000
898,0.0000000000
899,0.0000000000
900,0.0000000000
901,0.0000000000
902,0.0097751703
903,0.0097751703
904,0.0195503416
905,0.0097751703
906,0.0097751703
907,0.0097751703
908,0.0097751703
909,0.0097751703
910,0.0097751703
911,0.0097751703
912,0.0097751703
913,0.0097751703
914,0.0097751703
915,0.0097751703
916,0.0000000000
917,0.0000000000
918,0.0000000000
919,0.0000000000
920,0.0000000000
921,0.0000000000
922,0.0000000000
923,0.0000000000
924,0.0000000000
925,0.0000000000
926,0.0000000000
927,0.0000000000
928,0.0000000000
929,0.0097751703
930,0.0097751703
931,0.0097751703
932,0.0097751703
933,0.0097751703
934,0.0097751703
935,0.0097751703
936,0.0000000000
937,0.0000000000
938,0.0097751703
939,0.0097751703
940,0.0097751703
941,0.0195503416
942,0.0195503416
943,0.0195503416
944,0.0195503416
945,0.0195503416
946,0.0097751703
947,0.0097751703
948,0.0000000000
949,0.0097751703
950,0.0097751703
951,0.0097751703
952,0.0097751703
953,0.0097751703
954,0.0097751703
955,0.0097751703
956,0.0097751703
957,0.0097751703
958,0.0097751703
959,0.0097751703
960,0.0000000000
961,0.0000000000
962,0.0000000000
963,0.0097751703
964,0.0000000000
965,0.0000000000
966,0.0097751703
967,0.0097751703
968,0.0097751703
969,0.0097751703
970,0.0097751703
971,0.0097751703
972,0.0097751703
973,0.0097751703
974,0.0097751703
975,0.0097751703
976,0.0097751703
977,0.0097751703
978,0.0097751703
979,0.0097751703
980,0.0097751703
981,0.0097751703
982,0.0097751703
983,0.0097751703
984,0.0000000000
985,0.0097751703
986,0.0097751703
987,0.0097751703
988,0.0097751703
989,0.0097751703
990,0.0097751703
991,0.0097751703
992,0.0097751703
993,0.0097751703
994,0.0097751703
995,0.0097751703
996,0.0000000000
997,0.0000000000
998,0.0000000000
999,0.0000000000
1000,0.0293255119
1001,2.2385141849
1002,1.7595307