0,0.0195503416
1,0.2052785873
2,0.2834799575
3,0.3128054618
4,0.3323558330
5,0.3128054618
6,0.2541544437
7,0.2150537729
8,0.1759530782
9,0.1466275596
10,0.1173020482
11,0.0977517032
12,0.0782013654
13,0.0684261989
14,0.0586510229
15,0.0488758516
16,0.0391006832
17,0.0293255119
18,0.0293255119
19,0.0195503416
20,0.0195503416
21,0.0195503416
22,0.0097751703
23,0.0097751703
24,0.0097751703
25,0.0097751703
26,0.0000000000
27,0.0097751703
28,0.0000000000
29,0.0000000000
30,0.0000000000
31,0.0000000000
32,0.0000000000
33,0.0000000000
34,0.0000000000
35,0.0000000000
36,0.0000000000
37,0.0097751703
38,0.0000000000
39,0.0000000000
40,0.0000000000
41,0.0000000000
42,0.0000000000
43,0.0000000000
44,0.0097751703
45,0.0097751703
46,0.0000000000
47,0.0000000000
48,0.0000000000
49,0.0000000000
50,0.0000000000
51,0.0000000000
52,0.0000000000
53,0.0000000000
54,0.0000000000
55,0.0000000000
56,0.0000000000
57,0.0000000000
58,0.0000000000
59,0.0000000000
60,0.0000000000
61,0.0000000000
62,0.0000000000
63,0.0000000000
64,0.0000000000
65,0.0000000000
66,0.0000000000
67,0.0000000000
68,0.0097751703
69,0.0000000000
70,0.0000000000
71,0.0000000000
72,0.0000000000
73,0.0097751703
74,0.0097751703
75,0.0195503416
76,0.0293255119
77,0.0195503416
78,0.0195503416
79,0.0293255119
80,0.0391006832
81,0.0391006832
82,0.0586510229
83,0.0586510229
84,0.0488758516
85,0.0488758516
86,0.0586510229
87,0.0586510229
88,0.0488758516
89,0.0488758516
90,0.0586510229
91,0.0684261989
92,0.0782013654
93,0.0977517032
94,0.0879765415
95,0.0879765415
96,0.0977517032
97,0.1075268864
98,0.1075268864
99,0.1173020482
100,0.1173020482
101,0.1368523955
102,0.1368523955
103,0.1270772218
104,0.1270772218
105,0.1075268864
106,0.0977517032
107,0.0977517032
108,0.0879765415
109,0.0782013654
110,0.0684261989
111,0.0586510229
112,0.0586510229
113,0.0684261989
114,0.0684261989
115,0.0684261989
116,0.0586510229
117,0.0488758516
118,0.0391006832
119,0.0293255119
120,0.0293255119
121,0.0293255119
122,0.0195503416
123,0.0195503416
124,0.0195503416
125,0.0195503416
126,0.0097751703
127,0.0097751703
128,0.0097751703
129,0.0097751703
130,0.0000000000
131,0.0000000000
132,0.0000000000
133,0.0000000000
134,0.0000000000
135,0.0000000000
136,0.0000000000
137,0.0000000000
138,0.0000000000
139,0.0000000000
140,0.0000000000
141,0.0000000000
142,0.0000000000
143,0.0000000000
144,0.0000000000
145,0.0000000000
146,0.0097751703
147,0.0195503416
148,0.0097751703
149,0.0195503416
150,0.0293255119
151,0.0488758516
152,0.0391006832
153,0.0391006832
154,0.0391006832
155,0.0391006832
156,0.0293255119
157,0.0391006832
158,0.0293255119
159,0.0293255119
160,0.0195503416
161,0.0195503416
162,0.0097751703
163,0.0097751703
164,0.0195503416
165,0.0293255119
166,0.0195503416
167,0.0097751703
168,0.0097751703
169,0.0097751703
170,0.0097751703
171,0.0097751703
172,0.0097751703
173,0.0097751703
174,0.0097751703
175,0.0097751703
176,0.0000000000
177,0.0097751703
178,0.0097751703
179,0.0097751703
180,0.0195503416
181,0.0195503416
182,0.0293255119
183,0.0293255119
184,0.0293255119
185,0.0391006832
186,0.0293255119
187,0.0293255119
188,0.0195503416
189,0.0195503416
190,0.0097751703
191,0.0097751703
192,0.0097751703
193,0.0097751703
194,0.0195503416
195,0.0195503416
196,0.0097751703
197,0.0195503416
198,0.0195503416
199,0.0195503416
200,0.0293255119
201,0.0195503416
202,0.0293255119
203,0.0293255119
204,0.0195503416
205,0.0195503416
206,0.0195503416
207,0.0097751703
208,0.0195503416
209,0.0195503416
210,0.0097751703
211,0.0097751703
212,0.0097751703
213,0.0097751703
214,0.0000000000
215,0.0000000000
216,0.0000000000
217,0.0000000000
218,0.0000000000
219,0.0000000000
220,0.0000000000
221,0.0000000000
222,0.0000000000
223,0.0000000000
224,0.0000000000
225,0.0000000000
226,0.0000000000
227,0.0000000000
228,0.0195503416
229,0.0293255119
230,0.0293255119
231,0.0391006832
232,0.0488758516
233,0.0391006832
234,0.0488758516
235,0.0684261989
236,0.0684261989
237,0.0684261989
238,0.0586510229
239,0.0586510229
240,0.0488758516
241,0.0488758516
242,0.0488758516
243,0.0488758516
244,0.0391006832
245,0.0391006832
246,0.0391006832
247,0.0391006832
248,0.0391006832
249,0.0488758516
250,0.0684261989
251,0.0586510229
252,0.0684261989
253,0.0684261989
254,0.0684261989
255,0.0684261989
256,0.0586510229
257,0.0586510229
258,0.0586510229
259,0.0684261989
260,0.0684261989
261,0.0684261989
262,0.0782013654
263,0.0782013654
264,0.0782013654
265,0.0782013654
266,0.0879765415
267,0.0782013654
268,0.0782013654
269,0.0684261989
270,0.0586510229
271,0.0586510229
272,0.0488758516
273,0.0488758516
274,0.0488758516
275,0.0488758516
276,0.0488758516
277,0.0391006832
278,0.0293255119
279,0.0293255119
280,0.0293255119
281,0.0293255119
282,0.0195503416
283,0.0293255119
284,0.0195503416
285,0.0097751703
286,0.0097751703
287,0.0097751703
288,0.0097751703
289,0.0097751703
290,0.0097751703
291,0.0097751703
292,0.0000000000
293,0.0000000000
294,0.0000000000
295,0.0000000000
296,0.0000000000
297,0.0000000000
298,0.0000000000
299,0.0000000000
300,0.0000000000
301,0.0000000000
302,0.0000000000
303,0.0000000000
304,0.0000000000
305,0.0000000000
306,0.0000000000
307,0.0000000000
308,0.0000000000
309,0.0000000000
310,0.0000000000
311,0.0000000000
312,0.0000000000
313,0.0000000000
314,0.0000000000
315,0.0000000000
316,0.0000000000
317,0.0000000000
318,0.0000000000
319,0.0000000000
320,0.0097751703
321,0.0097751703
322,0.0097751703
323,0.0097751703
324,0.0097751703
325,0.0000000000
326,0.0000000000
327,0.0000000000
328,0.0000000000
329,0.0097751703
330,0.0097751703
331,0.0097751703
332,0.0097751703
333,0.0097751703
334,0.0097751703
335,0.0097751703
336,0.0097751703
337,0.0000000000
338,0.0000000000
339,0.0000000000
340,0.0000000000
341,0.0000000000
342,0.0097751703
343,0.0488758516
344,0.0391006832
345,0.0293255119
346,0.0195503416
347,0.0097751703
348,0.0097751703
349,0.0097751703
350,0.0195503416
351,0.0195503416
352,0.0195503416
353,0.0195503416
354,0.0097751703
355,0.0097751703
356,0.0097751703
357,0.0000000000
358,0.0000000000
359,0.0000000000
360,0.0000000000
361,0.0000000000
362,0.0000000000
363,0.0000000000
364,0.0000000000
365,0.0000000000
366,0.0097751703
367,0.0293255119
368,0.0293255119
369,0.0293255119
370,0.0195503416
371,0.0195503416
372,0.0097751703
373,0.0097751703
374,0.0195503416
375,0.0293255119
376,0.0293255119
377,0.0293255119
378,0.0195503416
379,0.0293255119
380,0.0391006832
381,0.0293255119
382,0.0293255119
383,0.0293255119
384,0.0195503416
385,0.0097751703
386,0.0097751703
387,0.0097751703
388,0.0097751703
389,0.0097751703
390,0.0097751703
391,0.0097751703
392,0.0097751703
393,0.0097751703
394,0.0000000000
395,0.0000000000
396,0.0000000000
397,0.0000000000
398,0.0000000000
399,0.0000000000
400,0.0000000000
401,0.0000000000
402,0.0000000000
403,0.0000000000
404,0.0000000000
405,0.0000000000
406,0.0000000000
407,0.0000000000
408,0.0000000000
409,0.0000000000
410,0.0000000000
411,0.0000000000
412,0.0000000000
413,0.0097751703
414,0.0097751703
415,0.0097751703
416,0.0195503416
417,0.0195503416
418,0.0195503416
419,0.0097751703
420,0.0195503416
421,0.0195503416
422,0.0195503416
423,0.0195503416
424,0.0293255119
425,0.0195503416
426,0.0195503416
427,0.0195503416
428,0.0293255119
429,0.0293255119
430,0.0391006832
431,0.0293255119
432,0.0391006832
433,0.0391006832
434,0.0391006832
435,0.0977517032
436,0.0879765415
437,0.0977517032
438,0.0879765415
439,0.0782013654
440,0.0684261989
441,0.0684261989
442,0.0684261989
443,0.0684261989
444,0.0684261989
445,0.0684261989
446,0.0684261989
447,0.0782013654
448,0.1075268864
449,0.1173020482
450,0.1075268864
451,0.0977517032
452,0.0977517032
453,0.0977517032
454,0.0879765415
455,0.0879765415
456,0.0782013654
457,0.0782013654
458,0.0684261989
459,0.0586510229
460,0.0586510229
461,0.0488758516
462,0.0391006832
463,0.0293255119
464,0.0391006832
465,0.0684261989
466,0.0684261989
467,0.0684261989
468,0.0586510229
469,0.0586510229
470,0.0391006832
471,0.0586510229
472,0.0586510229
473,0.0488758516
474,0.0488758516
475,0.0391006832
476,0.0391006832
477,0.0391006832
478,0.0391006832
479,0.0391006832
480,0.0293255119
481,0.0293255119
482,0.0195503416
483,0.0195503416
484,0.0195503416
485,0.0293255119
486,0.0293255119
487,0.0391006832
488,0.0293255119
489,0.0195503416
490,0.0195503416
491,0.0195503416
492,0.0097751703
493,0.0097751703
494,0.0097751703
495,0.0000000000
496,0.0097751703
497,0.0097751703
498,0.0000000000
499,0.0000000000
500,0.0000000000
501,0.0000000000
502,0.0000000000
503,0.0000000000
504,0.0000000000
505,0.0000000000
506,0.0000000000
507,0.0000000000
508,0.0000000000
509,0.0097751703
510,0.0097751703
511,0.0097751703
512,0.0097751703
513,0.0293255119
514,0.0488758516
515,0.0391006832
516,0.0293255119
517,0.0195503416
518,0.0195503416
519,0.0195503416
520,0.0097751703
521,0.0097751703
522,0.0097751703
523,0.0097751703
524,0.0000000000
525,0.0000000000
526,0.0000000000
527,0.0000000000
528,0.0000000000
529,0.0195503416
530,0.0293255119
531,0.0293255119
532,0.0293255119
533,0.0293255119
534,0.0195503416
535,0.0195503416
536,0.0097751703
537,0.0097751703
538,0.0195503416
539,0.0391006832
540,0.0293255119
541,0.0195503416
542,0.0195503416
543,0.0195503416
544,0.0097751703
545,0.0097751703
546,0.0097751703
547,0.0097751703
548,0.0097751703
549,0.0097751703
550,0.0097751703
551,0.0097751703
552,0.0097751703
553,0.0097751703
554,0.0097751703
555,0.0097751703
556,0.0097751703
557,0.0097751703
558,0.0097751703
559,0.0097751703
560,0.0097751703
561,0.0097751703
562,0.0097751703
563,0.0097751703
564,0.0097751703
565,0.0097751703
566,0.0000000000
567,0.0000000000
568,0.0000000000
569,0.0000000000
570,0.0000000000
571,0.0000000000
572,0.0000000000
573,0.0097751703
574,0.0195503416
575,0.0097751703
576,0.0097751703
577,0.0097751703
578,0.0195503416
579,0.0097751703
580,0.0097751703
581,0.0097751703
582,0.0097751703
583,0.0097751703
584,0.0000000000
585,0.0000000000
586,0.0097751703
587,0.0097751703
588,0.0097751703
589,0.0000000000
590,0.0097751703
591,0.0097751703
592,0.0000000000
593,0.0000000000
594,0.0000000000
595,0.0000000000
596,0.0000000000
597,0.0000000000
598,0.0000000000
599,0.0000000000
600,0.0000000000
601,0.0000000000
602,0.0097751703
603,0.0097751703
604,0.0097751703
605,0.0097751703
606,0.0293255119
607,0.0293255119
608,0.0293255119
609,0.0293255119
610,0.0293255119
611,0.0293255119
612,0.0391006832
613,0.0391006832
614,0.0488758516
615,0.0488758516
616,0.0586510229
617,0.0586510229
618,0.0977517032
619,0.1075268864
620,0.0977517032
621,0.0879765415
622,0.0879765415
623,0.0782013654
624,0.0782013654
625,0.0684261989
626,0.0684261989
627,0.0684261989
628,0.0684261989
629,0.0782013654
630,0.0879765415
631,0.0879765415
632,0.0879765415
633,0.0879765415
634,0.0782013654
635,0.0782013654
636,0.1075268864
637,0.0977517032
638,0.0879765415
639,0.0684261989
640,0.0684261989
641,0.0586510229
642,0.0488758516
643,0.0391006832
644,0.0391006832
645,0.0488758516
646,0.0391006832
647,0.0293255119
648,0.0293255119
649,0.0293255119
650,0.0293255119
651,0.0195503416
652,0.0195503416
653,0.0097751703
654,0.0097751703
655,0.0097751703
656,0.0097751703
657,0.0000000000
658,0.0097751703
659,0.0000000000
660,0.0000000000
661,0.0000000000
662,0.0000000000
663,0.0000000000
664,0.0000000000
665,0.0000000000
666,0.0000000000
667,0.0000000000
668,0.0000000000
669,0.0000000000
670,0.0000000000
671,0.0000000000
672,0.0000000000
673,0.0097751703
674,0.0097751703
675,0.0293255119
676,0.0488758516
677,0.0391006832
678,0.0293255119
679,0.0293255119
680,0.0195503416
681,0.0195503416
682,0.0195503416
683,0.0195503416
684,0.0391006832
685,0.0586510229
686,0.0488758516
687,0.0391006832
688,0.0293255119
689,0.0293255119
690,0.0293255119
691,0.0195503416
692,0.0195503416
693,0.0195503416
694,0.0195503416
695,0.0195503416
696,0.0097751703
697,0.0097751703
698,0.0195503416
699,0.0097751703
700,0.0097751703
701,0.0097751703
702,0.0195503416
703,0.0195503416
704,0.0195503416
705,0.0097751703
706,0.0097751703
707,0.0097751703
708,0.0097751703
709,0.0097751703
710,0.0000000000
711,0.0097751703
712,0.0000000000
713,0.0000000000
714,0.0000000000
715,0.0000000000
716,0.0000000000
717,0.0000000000
718,0.0000000000
719,0.0000000000
720,0.0000000000
721,0.0097751703
722,0.0000000000
723,0.0097751703
724,0.0195503416
725,0.0488758516
726,0.0488758516
727,0.0391006832
728,0.0293255119
729,0.0293255119
730,0.0195503416
731,0.0195503416
732,0.0097751703
733,0.0097751703
734,0.0097751703
735,0.0097751703
736,0.0097751703
737,0.0097751703
738,0.0000000000
739,0.0097751703
740,0.0097751703
741,0.0000000000
742,0.0097751703
743,0.0000000000
744,0.0000000000
745,0.0000000000
746,0.0097751703
747,0.0097751703
748,0.0000000000
749,0.0097751703
750,0.0097751703
751,0.0097751703
752,0.0097751703
753,0.0097751703
754,0.0097751703
755,0.0097751703
756,0.0097751703
757,0.0097751703
758,0.0097751703
759,0.0000000000
760,0.0097751703
761,0.0097751703
762,0.0000000000
763,0.0097751703
764,0.0000000000
765,0.0000000000
766,0.0000000000
767,0.0000000000
768,0.0097751703
769,0.0000000000
770,0.0097751703
771,0.0097751703
772,0.0097751703
773,0.0097751703
774,0.0097751703
775,0.0097751703
776,0.0097751703
777,0.0097751703
778,0.0097751703
779,0.0195503416
780,0.0195503416
781,0.0195503416
782,0.0293255119
783,0.0293255119
784,0.0293255119
785,0.0293255119
786,0.0391006832
787,0.0293255119
788,0.0488758516
789,0.0684261989
790,0.0684261989
791,0.0586510229
792,0.0586510229
793,0.0782013654
794,0.0684261989
795,0.0684261989
796,0.0684261989
797,0.0586510229
798,0.0586510229
799,0.0586510229
800,0.0586510229
801,0.0684261989
802,0.0684261989
803,0.0684261989
804,0.0684261989
805,0.0782013654
806,0.0879765415
807,0.0977517032
808,0.0879765415
809,0.0782013654
810,0.0684261989
811,0.0684261989
812,0.0488758516
813,0.0684261989
814,0.0684261989
815,0.0586510229
816,0.0488758516
817,0.0391006832
818,0.0391006832
819,0.0293255119
820,0.0293255119
821,0.0293255119
822,0.0293255119
823,0.0195503416
824,0.0293255119
825,0.0293255119
826,0.0293255119
827,0.0293255119
828,0.0195503416
829,0.0195503416
830,0.0195503416
831,0.0195503416
832,0.0195503416
833,0.0097751703
834,0.0097751703
835,0.0097751703
836,0.0097751703
837,0.0097751703
838,0.0097751703
839,0.0000000000
840,0.0000000000
841,0.0097751703
842,0.0000000000
843,0.0097751703
844,0.0000000000
845,0.0000000000
846,0.0000000000
847,0.0000000000
848,0.0000000000
849,0.0000000000
850,0.0000000000
851,0.0000000000
852,0.0000000000
853,0.0000000000
854,0.0097751703
855,0.0000000000
856,0.0097751703
857,0.0488758516
858,0.0586510229
859,0.0488758516
860,0.0488758516
861,0.0391006832
862,0.0391006832
863,0.0195503416
864,0.0195503416
865,0.0195503416
866,0.0195503416
867,0.0195503416
868,0.0097751703
869,0.0097751703
870,0.0195503416
871,0.0097751703
872,0.0097751703
873,0.0000000000
874,0.0097751703
875,0.0000000000
876,0.0000000000
877,0.0000000000
878,0.0000000000
879,0.0000000000
880,0.0097751703
881,0.0000000000
882,0.0097751703
883,0.0000000000
884,0.0097751703
885,0.0097751703
886,0.0097751703
887,0.0195503416
888,0.0293255119
889,0.0293255119
890,0.0293255119
891,0.0195503416
892,0.0195503416
893,0.0195503416
894,0.0097751703
895,0.0097751703
896,0.0097751703
897,0.0097751703
898,0.0097751703
899,0.0097751703
900,0.0097751703
901,0.0097751703
902,0.0488758516
903,0.0586510229
904,0.0488758516
905,0.0391006832
906,0.0391006832
907,0.0293255119
908,0.0195503416
909,0.0195503416
910,0.0097751703
911,0.0097751703
912,0.0195503416
913,0.0097751703
914,0.0097751703
915,0.0097751703
916,0.0097751703
917,0.0000000000
918,0.0000000000
919,0.0097751703
920,0.0000000000
921,0.0097751703
922,0.0000000000
923,0.0000000000
924,0.0000000000
925,0.0000000000
926,0.0000000000
927,0.0097751703
928,0.0000000000
929,0.0000000000
930,0.0000000000
931,0.0097751703
932,0.0097751703
933,0.0097751703
934,0.0097751703
935,0.0097751703
936,0.0097751703
937,0.0097751703
938,0.0097751703
939,0.0097751703
940,0.0097751703
941,0.0195503416
942,0.0097751703
943,0.0097751703
944,0.0097751703
945,0.0097751703
946,0.0097751703
947,0.0097751703
948,0.0097751703
949,0.0097751703
950,0.0000000000
951,0.0000000000
952,0.0000000000
953,0.0097751703
954,0.0000000000
955,0.0097751703
956,0.0097751703
957,0.0097751703
958,0.0097751703
959,0.0097751703
960,0.0097751703
961,0.0097751703
962,0.0195503416
963,0.0195503416
964,0.0195503416
965,0.0195503416
966,0.0195503416
967,0.0195503416
968,0.0195503416
969,0.0195503416
970,0.0195503416
971,0.0293255119
972,0.0391006832
973,0.0488758516
974,0.0586510229
975,0.0586510229
976,0.0782013654
977,0.0782013654
978,0.0782013654
979,0.0684261989
980,0.0684261989
981,0.0684261989
982,0.0684261989
983,0.0684261989
984,0.0782013654
985,0.0782013654
986,0.0879765415
987,0.0977517032
988,0.0977517032
989,0.0977517032
990,0.0879765415
991,0.0879765415
992,0.0879765415
993,0.0977517032
994,0.0782013654
995,0.0977517032
996,0.0977517032
997,0.0879765415
998,0.1075268864
999,0.0977517032
1000,0.0977517032
1001,0.5474095821
1002,0.4398827075
1003,0.3616813421
1004,0.3030303001
1005,0.2443792819
1006,0.2052785873
1007,0.1857282543
1008,0.1564027309
1009,0.1368523955
1010,0.1075268864
1011,0.0879765415
1012,0.0782013654
1013,0.0684261989
1014,0.0586510229
1015,0.0488758516
1016,0.0391006832
1017,0.0293255119
1018,0.0293255119
1019,0.0195503416
1020,0.0195503416
1021,0.0097751703
1022,0.0097751703
1023,0.0097751703
1024,0.0097751703
1025,0.0097751703
1026,0.0097751703
1027,0.0097751703
1028,0.0097751703
1029,0.0097751703
1030,0.0293255119
1031,0.0293255119
1032,0.0488758516
1033,0.0391006832
1034,0.0293255119
1035,0.0293255119
1036,0.0293255119
1037,0.0293255119
1038,0.0195503416
1039,0.0293255119
1040,0.0195503416
1041,0.0195503416
1042,0.0488758516
1043,0.0391006832
1044,0.0391006832
1045,0.0293255119
1046,0.0293255119
1047,0.0195503416
1048,0.0195503416
1049,0.0293255119
1050,0.0195503416
1051,0.0097751703
1052,0.0097751703
1053,0.0097751703
1054,0.0097751703
1055,0.0097751703
1056,0.0097751703
1057,0.0195503416
1058,0.0195503416
1059,0.0097751703
1060,0.0097751703
1061,0.0097751703
1062,0.0097751703
1063,0.0097751703
1064,0.0097751703
1065,0.0097751703
1066,0.0097751703
1067,0.0097751703
1068,0.0097751703
1069,0.0097751703
1070,0.0097751703
1071,0.0097751703
1072,0.0000000000
1073,0.0097751703
1074,0.0097751703
1075,0.0097751703
1076,0.0000000000
1077,0.0097751703
1078,0.0097751703
1079,0.0097751703
1080,0.0097751703
1081,0.0097751703
1082,0.0097751703
1083,0.0097751703
1084,0.0097751703
1085,0.0000000000
1086,0.0000000000
1087,0.0195503416
1088,0.0293255119
1089,0.0195503416
1090,0.0195503416
1091,0.0195503416
1092,0.0195503416
1093,0.0195503416
1094,0.0097751703
1095,0.0097751703
1096,0.0195503416
1097,0.0097751703
1098,0.0097751703
1099,0.0097751703
1100,0.0097751703
1101,0.0097751703
1102,0.0097751703
1103,0.0097751703
1104,0.0097751703
1105,0.0097751703
1106,0.0097751703
1107,0.0097751703
1108,0.0097751703
1109,0.0195503416
1110,0.0195503416
1111,0.0195503416
1112,0.0195503416
1113,0.0097751703
1114,0.0097751703
1115,0.0097751703
1116,0.0097751703
1117,0.0097751703
1118,0.0097751703
1119,0.0097751703
1120,0.0097751703
1121,0.0097751703
1122,0.0195503416
1123,0.0097751703
1124,0.0097751703
1125,0.0097751703
1126,0.0097751703
1127,0.0097751703
1128,0.0097751703
1129,0.0097751703
1130,0.0097751703
1131,0.0097751703
1132,0.0195503416
1133,0.0195503416
1134,0.0097751703
1135,0.0097751703
1136,0.0195503416
1137,0.0195503416
1138,0.0195503416
1139,0.0195503416
1140,0.0195503416
1141,0.0097751703
1142,0.0195503416
1143,0.0195503416
1144,0.0293255119
1145,0.0293255119
1146,0.0391006832
1147,0.0488758516
1148,0.0488758516
1149,0.0391006832
1150,0.0391006832
1151,0.0488758516
1152,0.0488758516
1153,0.0488758516
1154,0.0586510229
1155,0.0586510229
1156,0.0586510229
1157,0.0488758516
1158,0.0391006832
1159,0.0488758516
1160,0.0488758516
1161,0.0488758516
1162,0.0488758516
1163,0.0586510229
1164,0.0586510229
1165,0.0586510229
1166,0.0684261989
1167,0.0684261989
1168,0.0586510229
1169,0.0586510229
1170,0.0684261989
1171,0.0782013654
1172,0.0782013654
1173,0.0879765415
1174,0.0782013654
1175,0.0879765415
1176,0.0879765415
1177,0.0977517032
1178,0.1270772218
1179,0.1075268864
1180,0.0977517032
1181,0.0879765415
1182,0.0879765415
1183,0.0684261989
1184,0.0879765415
1185,0.0977517032
1186,0.0782013654
1187,0.0684261989
1188,0.0586510229
1189,0.0488758516
1190,0.0488758516
1191,0.0391006832
1192,0.0391006832
1193,0.0391006832
1194,0.0391006832
1195,0.0391006832
1196,0.0391006832
1197,0.0293255119
1198,0.0293255119
1199,0.0195503416
1200,0.0293255119
1201,0.0195503416
1202,0.0195503416
1203,0.0195503416
1204,0.0195503416
1205,0.0195503416
1206,0.0195503416
1207,0.0097751703
1208,0.0195503416
1209,0.0195503416
1210,0.0097751703
1211,0.0097751703
1212,0.0097751703
1213,0.0097751703
1214,0.0097751703
1215,0.0097751703
1216,0.0097751703
1217,0.0097751703
1218,0.0097751703
1219,0.0195503416
1220,0.0195503416
1221,0.0195503416
1222,0.0195503416
1223,0.0293255119
1224,0.0293255119
1225,0.0391006832
1226,0.0293255119
1227,0.0195503416
1228,0.0195503416
1229,0.0097751703
1230,0.0097751703
1231,0.0097751703
1232,0.0097751703
1233,0.0097751703
1234,0.0097751703
1235,0.0000000000
1236,0.0000000000
1237,0.0000000000
1238,0.0000000000
1239,0.0000000000
1240,0.0000000000
1241,0.0000000000
1242,0.0000000000
1243,0.0097751703
1244,0.0097751703
1245,0.0195503416
1246,0.0195503416
1247,0.0195503416
1248,0.0195503416
1249,0.0195503416
1250,0.0195503416
1251,0.0097751703
1252,0.0097751703
1253,0.0097751703
1254,0.0097751703
1255,0.0097751703
1256,0.0097751703
1257,0.0195503416
1258,0.0195503416
1259,0.0195503416
1260,0.0195503416
1261,0.0293255119
1262,0.0195503416
1263,0.0195503416
1264,0.0097751703
1265,0.0097751703
1266,0.0097751703
1267,0.0097751703
1268,0.0195503416
1269,0.0097751703
1270,0.0097751703
1271,0.0097751703
1272,0.0097751703
1273,0.0097751703
1274,0.0097751703
1275,0.0097751703
1276,0.0195503416
1277,0.0195503416
1278,0.0097751703
1279,0.0097751703
1280,0.0195503416
1281,0.0195503416
1282,0.0195503416
1283,0.0195503416
1284,0.0097751703
1285,0.0097751703
1286,0.0097751703
1287,0.0097751703
1288,0.0097751703
1289,0.0097751703
1290,0.0097751703
1291,0.0097751703
1292,0.0195503416
1293,0.0097751703
1294,0.0097751703
1295,0.0097751703
1296,0.0097751703
1297,0.0097751703
1298,0.0097751703
1299,0.0097751703
1300,0.0097751703
1301,0.0097751703
1302,0.0097751703
1303,0.0097751703
1304,0.0097751703
1305,0.0097751703
1306,0.0097751703
1307,0.0097751703
1308,0.0097751703
1309,0.0097751703
1310,0.0097751703
1311,0.0195503416
1312,0.0195503416
1313,0.0195503416
1314,0.0195503416
1315,0.0195503416
1316,0.0195503416
1317,0.0293255119
1318,0.0391006832
1319,0.0391006832
1320,0.0391006832
1321,0.0391006832
1322,0.0391006832
1323,0.0391006832
1324,0.0293255119
1325,0.0293255119
1326,0.0488758516
1327,0.0488758516
1328,0.0488758516
1329,0.0391006832
1330,0.0391006832
1331,0.0391006832
1332,0.0391006832
1333,0.0391006832
1334,0.0586510229
1335,0.0684261989
1336,0.0684261989
1337,0.0586510229
1338,0.0684261989
1339,0.0586510229
1340,0.0586510229
1341,0.0586510229
1342,0.0586510229
1343,0.0586510229
1344,0.0684261989
1345,0.0684261989
1346,0.0782013654
1347,0.0879765415
1348,0.0879765415
1349,0.0879765415
1350,0.0879765415
1351,0.0782013654
1352,0.0977517032
1353,0.0879765415
1354,0.0977517032
1355,0.0879765415
1356,0.0879765415
1357,0.0977517032
1358,0.0977517032
1359,0.1368523955
1360,0.1173020482
1361,0.1075268864
1362,0.1075268864
1363,0.1075268864
1364,0.1075268864
1365,0.0977517032
1366,0.0879765415
1367,0.0879765415
1368,0.0977517032
1369,0.0977517032
1370,0.0977517032
1371,0.0879765415
1372,0.0782013654
1373,0.0684261989
1374,0.0586510229
1375,0.0586510229
1376,0.0488758516
1377,0.0391006832
1378,0.0293255119
1379,0.0391006832
1380,0.0391006832
1381,0.0293255119
1382,0.0293255119
1383,0.0195503416
1384,0.0195503416
1385,0.0195503416
1386,0.0097751703
1387,0.0195503416
1388,0.0195503416
1389,0.0195503416
1390,0.0097751703
1391,0.0097751703
1392,0.0195503416
1393,0.0195503416
1394,0.0195503416
1395,0.0195503416
1396,0.0195503416
1397,0.0293255119
1398,0.0879765415
1399,0.0782013654
1400,0.0684261989
1401,0.0586510229
1402,0.0488758516
1403,0.0391006832
1404,0.0391006832
1405,0.0391006832
1406,0.0293255119
1407,0.0391006832
1408,0.0293255119
1409,0.0293255119
1410,0.0195503416
1411,0.0195503416
1412,0.0097751703
1413,0.0097751703
1414,0.0097751703
1415,0.0097751703
1416,0.0097751703
1417,0.0097751703
1418,0.0000000000
1419,0.0097751703
1420,0.0097751703
1421,0.0097751703
1422,0.0097751703
1423,0.0097751703
1424,0.0097751703
1425,0.0195503416
1426,0.0195503416
1427,0.0097751703
1428,0.0097751703
1429,0.0097751703
1430,0.0195503416
1431,0.0195503416
1432,0.0097751703
1433,0.0097751703
1434,0.0097751703
1435,0.0097751703
1436,0.0097751703
1437,0.0195503416
1438,0.0195503416
1439,0.0195503416
1440,0.0195503416
1441,0.0195503416
1442,0.0097751703
1443,0.0097751703
1444,0.0097751703
1445,0.0097751703
1446,0.0097751703
1447,0.0195503416
1448,0.0195503416
1449,0.0195503416
1450,0.0097751703
1451,0.0097751703
1452,0.0097751703
1453,0.0097751703
1454,0.0097751703
1455,0.0097751703
1456,0.0097751703
1457,0.0097751703
1458,0.0097751703
1459,0.0097751703
1460,0.0097751703
1461,0.0097751703
1462,0.0097751703
1463,0.0097751703
1464,0.0097751703
1465,0.0097751703
1466,0.0195503416
1467,0.0195503416
1468,0.0097751703
1469,0.0195503416
1470,0.0195503416
1471,0.0195503416
1472,0.0293255119
1473,0.0195503416
1474,0.0391006832
1475,0.0293255119
1476,0.0293255119
1477,0.0391006832
1478,0.0293255119
1479,0.0293255119
1480,0.0195503416
1481,0.0195503416
1482,0.0195503416
1483,0.0195503416
1484,0.0293255119
1485,0.0293255119
1486,0.0293255119
1487,0.0293255119
1488,0.0293255119
1489,0.0293255119
1490,0.0195503416
1491,0.0391006832
1492,0.0391006832
1493,0.0391006832
1494,0.0391006832
1495,0.0488758516
1496,0.0488758516
1497,0.0586510229
1498,0.0586510229
1499,0.0586510229
1500,0.0586510229
1501,0.0684261989
1502,0.0684261989
1503,0.0684261989
1504,0.0684261989
1505,0.0586510229
1506,0.0586510229
1507,0.0488758516
1508,0.0782013654
1509,0.0684261989
1510,0.0684261989
1511,0.0782013654
1512,0.0782013654
1513,0.0684261989
1514,0.0586510229
1515,0.0586510229
1516,0.0684261989
1517,0.0782013654
1518,0.0977517032
1519,0.0879765415
1520,0.0879765415
1521,0.0977517032
1522,0.1173020482
1523,0.1075268864
1524,0.1173020482
1525,0.1466275596
1526,0.1270772218
1527,0.1075268864
1528,0.1270772218
1529,0.1173020482
1530,0.0977517032
1531,0.0879765415
1532,0.0782013654
1533,0.0684261989
1534,0.0684261989
1535,0.0684261989
1536,0.0488758516
1537,0.0488758516
1538,0.0586510229
1539,0.0488758516
1540,0.0391006832
1541,0.0293255119
1542,0.0293255119
1543,0.0293255119
1544,0.0293255119
1545,0.0293255119
1546,0.0195503416
1547,0.0195503416
1548,0.0195503416
1549,0.0195503416
1550,0.0195503416
1551,0.0097751703
1552,0.0195503416
1553,0.0195503416
1554,0.0195503416
1555,0.0097751703
1556,0.0097751703
1557,0.0097751703
1558,0.0097751703
1559,0.0195503416
1560,0.0195503416
1561,0.0097751703
1562,0.0293255119
1563,0.0391006832
1564,0.0586510229
1565,0.0586510229
1566,0.0488758516
1567,0.0293255119
1568,0.0293255119
1569,0.0293255119
1570,0.0293255119
1571,0.0195503416
1572,0.0195503416
1573,0.0195503416
1574,0.0195503416
1575,0.0195503416
1576,0.0097751703
1577,0.0195503416
1578,0.0195503416
1579,0.0195503416
1580,0.0097751703
1581,0.0097751703
1582,0.0097751703
1583,0.0195503416
1584,0.0293255119
1585,0.0293255119
1586,0.0195503416
1587,0.0195503416
1588,0.0195503416
1589,0.0195503416
1590,0.0195503416
1591,0.0195503416
1592,0.0195503416
1593,0.0097751703
1594,0.0195503416
1595,0.0195503416
1596,0.0097751703
1597,0.0097751703
1598,0.0195503416
1599,0.0195503416
1600,0.0195503416
1601,0.0195503416
1602,0.0195503416
1603,0.0097751703
1604,0.0097751703
1605,0.0097751703
1606,0.0097751703
1607,0.0097751703
1608,0.0195503416
1609,0.0195503416
1610,0.0195503416
1611,0.0097751703
1612,0.0097751703
1613,0.0097751703
1614,0.0097751703
1615,0.0097751703
1616,0.0097751703
1617,0.0097751703
1618,0.0195503416
1619,0.0097751703
1620,0.0097751703
1621,0.0097751703
1622,0.0097751703
1623,0.0097751703
1624,0.0097751703
1625,0.0097751703
1626,0.0097751703
1627,0.0000000000
1628,0.0097751703
1629,0.0097751703
1630,0.0097751703
1631,0.0097751703
1632,0.0097751703
1633,0.0097751703
1634,0.0097751703
1635,0.0097751703
1636,0.0097751703
1637,0.0000000000
1638,0.0000000000
1639,0.0097751703
1640,0.0097751703
1641,0.0000000000
1642,0.0000000000
1643,0.0000000000
1644,0.0000000000
1645,0.0097751703
1646,0.0097751703
1647,0.0097751703
1648,0.0097751703
1649,0.0195503416
1650,0.0195503416
1651,0.0293255119
1652,0.0293255119
1653,0.0293255119
1654,0.0391006832
1655,0.0391006832
1656,0.0391006832
1657,0.0391006832
1658,0.0293255119
1659,0.0293255119
1660,0.0293255119
1661,0.0293255119
1662,0.0391006832
1663,0.0293255119
1664,0.0293255119
1665,0.0195503416
1666,0.0195503416
1667,0.0293255119
1668,0.0293255119
1669,0.0293255119
1670,0.0293255119
1671,0.0293255119
1672,0.0293255119
1673,0.0391006832
1674,0.0391006832
1675,0.0391006832
1676,0.0391006832
1677,0.0391006832
1678,0.0391006832
1679,0.0391006832
1680,0.0488758516
1681,0.0586510229
1682,0.0684261989
1683,0.0879765415
1684,0.1173020482
1685,0.1173020482
1686,0.1466275596
1687,0.1466275596
1688,0.1270772218
1689,0.1173020482
1690,0.1564027309
1691,0.1564027309
1692,0.1466275596
1693,0.1368523955
1694,0.1270772218
1695,0.1173020482
1696,0.1075268864
1697,0.1075268864
1698,0.1270772218
1699,0.1270772218
1700,0.1173020482
1701,0.1270772218
1702,0.1075268864
1703,0.1173020482
1704,0.1173020482
1705,0.1173020482
1706,0.1270772218
1707,0.1075268864
1708,0.0977517032
1709,0.0879765415
1710,0.0782013654
1711,0.0782013654
1712,0.0684261989
1713,0.0586510229
1714,0.0488758516
1715,0.0586510229
1716,0.0488758516
1717,0.0488758516
1718,0.0391006832
1719,0.0391006832
1720,0.0391006832
1721,0.0391006832
1722,0.0293255119
1723,0.0195503416
1724,0.0195503416
1725,0.0293255119
1726,0.0293255119
1727,0.0293255119
1728,0.0488758516
1729,0.0391006832
1730,0.0391006832
1731,0.0391006832
1732,0.0488758516
1733,0.0391006832
1734,0.0391006832
1735,0.0293255119
1736,0.0293255119
1737,0.0391006832
1738,0.0391006832
1739,0.0391006832
1740,0.0488758516
1741,0.0391006832
1742,0.0391006832
1743,0.0391006832
1744,0.0293255119
1745,0.0293255119
1746,0.0391006832
1747,0.0391006832
1748,0.0391006832
1749,0.0488758516
1750,0.0488758516
1751,0.0391006832
1752,0.0293255119
1753,0.0293255119
1754,0.0293255119
1755,0.0195503416
1756,0.0195503416
1757,0.0195503416
1758,0.0195503416
1759,0.0195503416
1760,0.0293255119
1761,0.0293255119
1762,0.0293255119
1763,0.0293255119
1764,0.0391006832
1765,0.0293255119
1766,0.0293255119
1767,0.0293255119
1768,0.0293255119
1769,0.0293255119
1770,0.0195503416
1771,0.0195503416
1772,0.0195503416
1773,0.0293255119
1774,0.0293255119
1775,0.0195503416
1776,0.0195503416
1777,0.0195503416
1778,0.0195503416
1779,0.0293255119
1780,0.0195503416
1781,0.0195503416
1782,0.0195503416
1783,0.0195503416
1784,0.0293255119
1785,0.0195503416
1786,0.0195503416
1787,0.0195503416
1788,0.0195503416
1789,0.0195503416
1790,0.0293255119
1791,0.0195503416
1792,0.0195503416
1793,0.0195503416
1794,0.0293255119
1795,0.0195503416
1796,0.0293255119
1797,0.0195503416
1798,0.0293255119
1799,0.0293255119
1800,0.0195503416
1801,0.0195503416
1802,0.0195503416
1803,0.0293255119
1804,0.0293255119
1805,0.0293255119
1806,0.0195503416
1807,0.0195503416
1808,0.0195503416
1809,0.0195503416
1810,0.0195503416
1811,0.0195503416
1812,0.0195503416
1813,0.0195503416
1814,0.0293255119
1815,0.0293255119
1816,0.0293255119
1817,0.0293255119
1818,0.0293255119
1819,0.0293255119
1820,0.0293255119
1821,0.0293255119
1822,0.0293255119
1823,0.0293255119
1824,0.0391006832
1825,0.0391006832
1826,0.0391006832
1827,0.0391006832
1828,0.0293255119
1829,0.0391006832
1830,0.0391006832
1831,0.0391006832
1832,0.0391006832
1833,0.0293255119
1834,0.0293255119
1835,0.0391006832
1836,0.0293255119
1837,0.0391006832
1838,0.0488758516
1839,0.0488758516
1840,0.0488758516
1841,0.0488758516
1842,0.0586510229
1843,0.0586510229
1844,0.0782013654
1845,0.0879765415
1846,0.0782013654
1847,0.0977517032
1848,0.0977517032
1849,0.1075268864
1850,0.1368523955
1851,0.1270772218
1852,0.1270772218
1853,0.1270772218
1854,0.1270772218
1855,0.1173020482
1856,0.1270772218
1857,0.1661779165
1858,0.1466275596
1859,0.1466275596
1860,0.1466275596
1861,0.1466275596
1862,0.1368523955
1863,0.1270772218
1864,0.1368523955
1865,0.1173020482
1866,0.1075268864
1867,0.0977517032
1868,0.0879765415
1869,0.0879765415
1870,0.1075268864
1871,0.0977517032
1872,0.0879765415
1873,0.0684261989
1874,0.0684261989
1875,0.0586510229
1876,0.0586510229
1877,0.0488758516
1878,0.0391006832
1879,0.0391006832
1880,0.0293255119
1881,0.0293255119
1882,0.0293255119
1883,0.0195503416
1884,0.0195503416
1885,0.0195503416
1886,0.0097751703
1887,0.0097751703
1888,0.0097751703
1889,0.0097751703
1890,0.0097751703
1891,0.0097751703
1892,0.0097751703
1893,0.0097751703
1894,0.0097751703
1895,0.0097751703
1896,0.0097751703
1897,0.0586510229
1898,0.0684261989
1899,0.0586510229
1900,0.0488758516
1901,0.0488758516
1902,0.0391006832
1903,0.0293255119
1904,0.0195503416
1905,0.0293255119
1906,0.0195503416
1907,0.0195503416
1908,0.0195503416
1909,0.0097751703
1910,0.0195503416
1911,0.0195503416
1912,0.0293255119
1913,0.0293255119
1914,0.0195503416
1915,0.0293255119
1916,0.0195503416
1917,0.0097751703
1918,0.0195503416
1919,0.0195503416
1920,0.0195503416
1921,0.0195503416
1922,0.0195503416
1923,0.0195503416
1924,0.0195503416
1925,0.0195503416
1926,0.0195503416
1927,0.0097751703
1928,0.0195503416
1929,0.0195503416
1930,0.0195503416
1931,0.0195503416
1932,0.0195503416
1933,0.0195503416
1934,0.0293255119
1935,0.0293255119
1936,0.0293255119
1937,0.0293255119
1938,0.0195503416
1939,0.0195503416
1940,0.0195503416
1941,0.0195503416
1942,0.0195503416
1943,0.0195503416
1944,0.0195503416
1945,0.0097751703
1946,0.0097751703
1947,0.0097751703
1948,0.0097751703
1949,0.0195503416
1950,0.0195503416
1951,0.0097751703
1952,0.0097751703
1953,0.0097751703
1954,0.0097751703
1955,0.0097751703
1956,0.0097751703
1957,0.0097751703
1958,0.0195503416
1959,0.0195503416
1960,0.0195503416
1961,0.0195503416
1962,0.0097751703
1963,0.0195503416
1964,0.0097751703
1965,0.0097751703
1966,0.0097751703
1967,0.0195503416
1968,0.0195503416
1969,0.0195503416
1970,0.0195503416
1971,0.0195503416
1972,0.0195503416
1973,0.0195503416
1974,0.0097751703
1975,0.0097751703
1976,0.0097751703
1977,0.0097751703
1978,0.0097751703
1979,0.0097751703
1980,0.0097751703
1981,0.0097751703
1982,0.0000000000
1983,0.0097751703
1984,0.0097751703
1985,0.0097751703
1986,0.0097751703
1987,0.0097751703
1988,0.0097751703
1989,0.0000000000
1990,0.0000000000
1991,0.0097751703
1992,0.0097751703
1993,0.0000000000
1994,0.0000000000
1995,0.0000000000
1996,0.0000000000
1997,0.0097751703
1998,0.0097751703
1999,0.0097751703
2000,0.0293255119
2001,1.7888562679
2002,1.4076246261
2003,1.1045943498
2004,0.8602150917
2005,0.6744868278
2006,0.5278592109
2007,0.4203323364
2008,0.3225806236
2009,0.2541544437
2010,0.1955034160
2011,0.1564027309
2012,0.1270772218
2013,0.0977517032
2014,0.0684261989
2015,0.0488758516
2016,0.0391006832
2017,0.0293255119
2018,0.0195503416
2019,0.0195503416
2020,0.0097751703
2021,0.0000000000
2022,0.0097751703
2023,0.0000000000
2024,0.0000000000
2025,0.0000000000
2026,0.0000000000
2027,0.0000000000
2028,0.0000000000
2029,0.0000000000
2030,0.0000000000
2031,0.0000000000
2032,0.0000000000
2033,0.0000000000
2034,0.0000000000
2035,0.0000000000
2036,0.0000000000
2037,0.0000000000
2038,0.0000000000
2039,0.0000000000
2040,0.0000000000
2041,0.0000000000
2042,0.0000000000
2043,0.0000000000
2044,0.0000000000
2045,0.0000000000
2046,0.0000000000
2047,0.0000000000
2048,0.0000000000
2049,0.0000000000
2050,0.0000000000
2051,0.0000000000
2052,0.0000000000
2053,0.0000000000
2054,0.0000000000
2055,0.0000000000
2056,0.0000000000
2057,0.0000000000
2058,0.0000000000
2059,0.0000000000
2060,0.0000000000
2061,0.0000000000
2062,0.0000000000
2063,0.0000000000
2064,0.0000000000
2065,0.0000000000
2066,0.0000000000
2067,0.0000000000
2068,0.0000000000
2069,0.0000000000
2070,0.0000000000
2071,0.0000000000
2072,0.0000000000
2073,0.0000000000
2074,0.0000000000
2075,0.0000000000
2076,0.0000000000
2077,0.0000000000
2078,0.0000000000
2079,0.0000000000
2080,0.0000000000
2081,0.0000000000
2082,0.0000000000
2083,0.0000000000
2084,0.0000000000
2085,0.0000000000
2086,0.0000000000
2087,0.0000000000
2088,0.0000000000
2089,0.0000000000
2090,0.0000000000
2091,0.0000000000
2092,0.0000000000
2093,0.0000000000
2094,0.0000000000
2095,0.0000000000
2096,0.0000000000
2097,0.0000000000
2098,0.0000000000
2099,0.0000000000
2100,0.0000000000
2101,0.0000000000
2102,0.0000000000
2103,0.0000000000
2104,0.0000000000
2105,0.0000000000
2106,0.0000000000
2107,0.0000000000
2108,0.0000000000
2109,0.0000000000
2110,0.0000000000
2111,0.0000000000
2112,0.0000000000
2113,0.0000000000
2114,0.0000000000
2115,0.0000000000
2116,0.0000000000
2117,0.0000000000
2118,0.0000000000
2119,0.0000000000
2120,0.0000000000
2121,0.0000000000
2122,0.0000000000
2123,0.0000000000
2124,0.0000000000
2125,0.0000000000
2126,0.0000000000
2127,0.0000000000
2128,0.0000000000
2129,0.0000000000
2130,0.0000000000
2131,0.0000000000
2132,0.0000000000
2133,0.0000000000
2134,0.0000000000
2135,0.0000000000
2136,0.0000000000
2137,0.0000000000
2138,0.0000000000
2139,0.0000000000
2140,0.0000000000
2141,0.0000000000
2142,0.0000000000
2143,0.0000000000
2144,0.0000000000
2145,0.0000000000
2146,0.0000000000
2147,0.0000000000
2148,0.0000000000
2149,0.0000000000
2150,0.0000000000
2151,0.0000000000
2152,0.0000000000
2153,0.0000000000
2154,0.0000000000
2155,0.0000000000
2156,0.0000000000
2157,0.0000000000
2158,0.0000000000
2159,0.0000000000
2160,0.0000000000
2161,0.0000000000
2162,0.0000000000
2163,0.0000000000
2164,0.0000000000
2165,0.0000000000
2166,0.0000000000
2167,0.0000000000
2168,0.0000000000
2169,0.0000000000
2170,0.0000000000
2171,0.0000000000
2172,0.0000000000
2173,0.0000000000
2174,0.0000000000
2175,0.0000000000
2176,0.0000000000
2177,0.0000000000
2178,0.0000000000
2179,0.0000000000
2180,0.0000000000
2181,0.0000000000
2182,0.0000000000
2183,0.0000000000
2184,0.0000000000
2185,0.0000000000
2186,0.0000000000
2187,0.0000000000
2188,0.0000000000
2189,0.0000000000
2190,0.0000000000
2191,0.0000000000
2192,0.0000000000
2193,0.0000000000
2194,0.0000000000
2195,0.0000000000
2196,0.0000000000
2197,0.0000000000
2198,0.0000000000
2199,0.0000000000
2200,0.0000000000
2201,0.0000000000
2202,0.0000000000
2203,0.0000000000
2204,0.0000000000
2205,0.0000000000
2206,0.0000000000
2207,0.0000000000
2208,0.0000000000
2209,0.0000000000
2210,0.0000000000
2211,0.0000000000
2212,0.0000000000
2213,0.0000000000
2214,0.0000000000
2215,0.0000000000
2216,0.0000000000
2217,0.0000000000
2218,0.0000000000
2219,0.0000000000
2220,0.0000000000
2221,0.0000000000
2222,0.0000000000
2223,0.0000000000
2224,0.0000000000
2225,0.0000000000
2226,0.0000000000
2227,0.0000000000
2228,0.0000000000
2229,0.0000000000
2230,0.0000000000
2231,0.0000000000
2232,0.0000000000
2233,0.0000000000
2234,0.0000000000
2235,0.0000000000
2236,0.0000000000
2237,0.0000000000
2238,0.0000000000
2239,0.0000000000
2240,0.0000000000
2241,0.0000000000
2242,0.0000000000
2243,0.0000000000
2244,0.0000000000
2245,0.0000000000
2246,0.0000000000
2247,0.0000000000
2248,0.0000000000
2249,0.0000000000
2250,0.0000000000
2251,0.0000000000
2252,0.0000000000
2253,0.0000000000
2254,0.0000000000
2255,0.0000000000
2256,0.0000000000
2257,0.0000000000
2258,0.0000000000
2259,0.0000000000
2260,0.0000000000
2261,0.0000000000
2262,0.0000000000
2263,0.0000000000
2264,0.0000000000
2265,0.0000000000
2266,0.0000000000
2267,0.0000000000
2268,0.0000000000
2269,0.0000000000
2270,0.0000000000
2271,0.0000000000
2272,0.0000000000
2273,0.0000000000
2274,0.0000000000
2275,0.0000000000
2276,0.0000000000
2277,0.0000000000
2278,0.0000000000
2279,0.0000000000
2280,0.0000000000
2281,0.0000000000
2282,0.0000000000
2283,0.0000000000
2284,0.0000000000
2285,0.0000000000
2286,0.0000000000
2287,0.0000000000
2288,0.0000000000
2289,0.0000000000
2290,0.0000000000
2291,0.0000000000
2292,0.0000000000
2293,0.0000000000
2294,0.0000000000
2295,0.0000000000
2296,0.0000000000
2297,0.0000000000
2298,0.0000000000
2299,0.0000000000
2300,0.0000000000
2301,0.0000000000
2302,0.0000000000
2303,0.0000000000
2304,0.0000000000
2305,0.0000000000
2306,0.0000000000
2307,0.0000000000
2308,0.0000000000
2309,0.0000000000
2310,0.0000000000
2311,0.0000000000
2312,0.0000000000
2313,0.0000000000
2314,0.0000000000
2315,0.0000000000
2316,0.0000000000
2317,0.0000000000
2318,0.0000000000
2319,0.0000000000
2320,0.0000000000
2321,0.0000000000
2322,0.0000000000
2323,0.0000000000
2324,0.0000000000
2325,0.0000000000
2326,0.0000000000
2327,0.0000000000
2328,0.0000000000
2329,0.0000000000
2330,0.0000000000
2331,0.0000000000
2332,0.0000000000
2333,0.0000000000
2334,0.0000000000
2335,0.0000000000
2336,0.0000000000
2337,0.0000000000
2338,0.0000000000
2339,0.0000000000
2340,0.0000000000
2341,0.0000000000
2342,0.0000000000
2343,0.0000000000
2344,0.0000000000
2345,0.0000000000
2346,0.0000000000
2347,0.0000000000
2348,0.0000000000
2349,0.0000000000
2350,0.0000000000
2351,0.0000000000
2352,0.0000000000
2353,0.0000000000
2354,0.0000000000
2355,0.0000000000
2356,0.0000000000
2357,0.0000000000
2358,0.0000000000
2359,0.0000000000
2360,0.0000000000
2361,0.0000000000
2362,0.0000000000
2363,0.0000000000
2364,0.0000000000
2365,0.0000000000
2366,0.0000000000
2367,0.0000000000
2368,0.0000000000
2369,0.0000000000
2370,0.0000000000
2371,0.0000000000
2372,0.0000000000
2373,0.0000000000
2374,0.0000000000
2375,0.0000000000
2376,0.0000000000
2377,0.0000000000
2378,0.0000000000
2379,0.0000000000
2380,0.0000000000
2381,0.0000000000
2382,0.0000000000
2383,0.0000000000
2384,0.0000000000
2385,0.0000000000
2386,0.0000000000
2387,0.0000000000
2388,0.0000000000
2389,0.0000000000
2390,0.0000000000
2391,0.0000000000
2392,0.0000000000
2393,0.0000000000
2394,0.0000000000
2395,0.0000000000
2396,0.0000000000
2397,0.0000000000
2398,0.0000000000
2399,0.0000000000
2400,0.0000000000
2401,0.0000000000
2402,0.0000000000
2403,0.0000000000
2404,0.0000000000
2405,0.0000000000
2406,0.0000000000
2407,0.0000000000
2408,0.0000000000
2409,0.0000000000
2410,0.0000000000
2411,0.0000000000
2412,0.0000000000
2413,0.0000000000
2414,0.0000000000
2415,0.0000000000
2416,0.0000000000
2417,0.0000000000
2418,0.0000000000
2419,0.0000000000
2420,0.0000000000
2421,0.0000000000
2422,0.0000000000
2423,0.0000000000
2424,0.0000000000
2425,0.0000000000
2426,0.0000000000
2427,0.0000000000
2428,0.0000000000
2429,0.0000000000
2430,0.0000000000
2431,0.0000000000
2432,0.0000000000
2433,0.0000000000
2434,0.0000000000
2435,0.0000000000
2436,0.0000000000
2437,0.0000000000
2438,0.0000000000
2439,0.0000000000
2440,0.0000000000
2441,0.0000000000
2442,0.0000000000
2443,0.0000000000
2444,0.0000000000
2445,0.0000000000
2446,0.0000000000
2447,0.0000000000
2448,0.0000000000
2449,0.0000000000
2450,0.0000000000
2451,0.0000000000
2452,0.0000000000
2453,0.0000000000
2454,0.0000000000
2455,0.0000000000
2456,0.0000000000
2457,0.0000000000
2458,0.0000000000
2459,0.0000000000
2460,0.0000000000
2461,0.0000000000
2462,0.0000000000
2463,0.0000000000
2464,0.0000000000
2465,0.0000000000
2466,0.0000000000
2467,0.0000000000
2468,0.0000000000
2469,0.0000000000
2470,0.0000000000
2471,0.0000000000
2472,0.0000000000
2473,0.0000000000
2474,0.0000000000
2475,0.0000000000
2476,0.0000000000
2477,0.0000000000
2478,0.0000000000
2479,0.0000000000
2480,0.0000000000
2481,0.0000000000
2482,0.0000000000
2483,0.0000000000
2484,0.0000000000
2485,0.0000000000
2486,0.0000000000
2487,0.0000000000
2488,0.0000000000
2489,0.0000000000
2490,0.0000000000
2491,0.0000000000
2492,0.0000000000
2493,0.0000000000
2494,0.0000000000
2495,0.0000000000
2496,0.0000000000
2497,0.0000000000
2498,0.0000000000
2499,0.0000000000
2500,0.0000000000
2501,0.0000000000
2502,0.0000000000
2503,0.0000000000
2504,0.0000000000
2505,0.0000000000
2506,0.0000000000
2507,0.0000000000
2508,0.0000000000
2509,0.0000000000
2510,0.0000000000
2511,0.0000000000
2512,0.0000000000
2513,0.0000000000
2514,0.0000000000
2515,0.0000000000
2516,0.0000000000
2517,0.0000000000
2518,0.0000000000
2519,0.0000000000
2520,0.0000000000
2521,0.0000000000
2522,0.0000000000
2523,0.0000000000
2524,0.0000000000
2525,0.0000000000
2526,0.0000000000
2527,0.0000000000
2528,0.0000000000
2529,0.0000000000
2530,0.0000000000
2531,0.0000000000
2532,0.0000000000
2533,0.0000000000
2534,0.0000000000
2535,0.0000000000
2536,0.0000000000
2537,0.0000000000
2538,0.0000000000
2539,0.0000000000
2540,0.0000000000
2541,0.0000000000
2542,0.0000000000
2543,0.0000000000
2544,0.0000000000
2545,0.0000000000
2546,0.0000000000
2547,0.0000000000
2548,0.0000000000
2549,0.0000000000
2550,0.0000000000
2551,0.0000000000
2552,0.0000000000
2553,0.0000000000
2554,0.0000000000
2555,0.0000000000
2556,0.0000000000
2557,0.0000000000
2558,0.0000000000
2559,0.0000000000
2560,0.0000000000
2561,0.0000000000
2562,0.0000000000
2563,0.0000000000
2564,0.0000000000
2565,0.0000000000
2566,0.0000000000
2567,0.0000000000
2568,0.0000000000
2569,0.0000000000
2570,0.0000000000
2571,0.0000000000
2572,0.0000000000
2573,0.0000000000
2574,0.0000000000
2575,0.0000000000
2576,0.0000000000
2577,0.0000000000
2578,0.0000000000
2579,0.0000000000
2580,0.0000000000
2581,0.0000000000
2582,0.0000000000
2583,0.0000000000
2584,0.0000000000
2585,0.0000000000
2586,0.0000000000
2587,0.0000000000
2588,0.0000000000
2589,0.0000000000
2590,0.0000000000
2591,0.0000000000
2592,0.0000000000
2593,0.0000000000
2594,0.0000000000
2595,0.0000000000
2596,0.0000000000
2597,0.0000000000
2598,0.0000000000
2599,0.0000000000
2600,0.0000000000
2601,0.0000000000
2602,0.0000000000
2603,0.0000000000
2604,0.0000000000
2605,0.0000000000
2606,0.0000000000
2607,0.0000000000
2608,0.0000000000
2609,0.0000000000
2610,0.0000000000
2611,0.0000000000
2612,0.0000000000
2613,0.0000000000
2614,0.0000000000
2615,0.0000000000
2616,0.0000000000
2617,0.0000000000
2618,0.0000000000
2619,0.0000000000
2620,0.0000000000
2621,0.0000000000
2622,0.0000000000
2623,0.0000000000
2624,0.0000000000
2625,0.0000000000
2626,0.0000000000
2627,0.0000000000
2628,0.0000000000
2629,0.0000000000
2630,0.0000000000
2631,0.0000000000
2632,0.0000000000
2633,0.0000000000
2634,0.0000000000
2635,0.0000000000
2636,0.0000000000
2637,0.0000000000
2638,0.0000000000
2639,0.0000000000
2640,0.0000000000
2641,0.0000000000
2642,0.0000000000
2643,0.0000000000
2644,0.0000000000
2645,0.0000000000
2646,0.0000000000
2647,0.0000000000
2648,0.0000000000
2649,0.0000000000
2650,0.0000000000
2651,0.0000000000
2652,0.0000000000
2653,0.0000000000
2654,0.0000000000
2655,0.0000000000
2656,0.0000000000
2657,0.0000000000
2658,0.0000000000
2659,0.0000000000
2660,0.0000000000
2661,0.0000000000
2662,0.0000000000
2663,0.0000000000
2664,0.0000000000
2665,0.0000000000
2666,0.0000000000
2667,0.0000000000
2668,0.0000000000
2669,0.0000000000
2670,0.0000000000
2671,0.0000000000
2672,0.0000000000
2673,0.0000000000
2674,0.0000000000
2675,0.0000000000
2676,0.0000000000
2677,0.0000000000
2678,0.0000000000
2679,0.0000000000
2680,0.0000000000
2681,0.0000000000
2682,0.0000000000
2683,0.0000000000
2684,0.0000000000
2685,0.0000000000
2686,0.0000000000
2687,0.0000000000
2688,0.0000000000
2689,0.0000000000
2690,0.0000000000
2691,0.0000000000
2692,0.0000000000
2693,0.0000000000
2694,0.0000000000
2695,0.0000000000
2696,0.0000000000
2697,0.0000000000
2698,0.0000000000
2699,0.0000000000
2700,0.0000000000
2701,0.0000000000
2702,0.0000000000
2703,0.0000000000
2704,0.0000000000
2705,0.0000000000
2706,0.0000000000
2707,0.0000000000
2708,0.0000000000
2709,0.0000000000
2710,0.0000000000
2711,0.0000000000
2712,0.0000000000
2713,0.0000000000
2714,0.0000000000
2715,0.0000000000
2716,0.0000000000
2717,0.0000000000
2718,0.0000000000
2719,0.0000000000
2720,0.0000000000
2721,0.0000000000
2722,0.0000000000
2723,0.0000000000
2724,0.0000000000
2725,0.0000000000
2726,0.0000000000
2727,0.0000000000
2728,0.0000000000
2729,0.0000000000
2730,0.0000000000
2731,0.0000000000
2732,0.0000000000
2733,0.0000000000
2734,0.0000000000
2735,0.0000000000
2736,0.0000000000
2737,0.0000000000
2738,0.0000000000
2739,0.0000000000
2740,0.0000000000
2741,0.0000000000
2742,0.0000000000
2743,0.0000000000
2744,0.0000000000
2745,0.0000000000
2746,0.0000000000
2747,0.0000000000
2748,0.0000000000
2749,0.0000000000
2750,0.0000000000
2751,0.0000000000
2752,0.0000000000
2753,0.0000000000
2754,0.0000000000
2755,0.0000000000
2756,0.0000000000
2757,0.0000000000
2758,0.0000000000
2759,0.0000000000
2760,0.0000000000
2761,0.0000000000
2762,0.0000000000
2763,0.0000000000
2764,0.0000000000
2765,0.0000000000
2766,0.0000000000
2767,0.0000000000
2768,0.0000000000
2769,0.0000000000
2770,0.0000000000
2771,0.0000000000
2772,0.0000000000
2773,0.0000000000
2774,0.0000000000
2775,0.0000000000
2776,0.0000000000
2777,0.0000000000
2778,0.0000000000
2779,0.0000000000
2780,0.0000000000
2781,0.0000000000
2782,0.0000000000
2783,0.0000000000
2784,0.0000000000
2785,0.0000000000
2786,0.0000000000
2787,0.0000000000
2788,0.0000000000
2789,0.0000000000
2790,0.0000000000
2791,0.0000000000
2792,0.0000000000
2793,0.0000000000
2794,0.0000000000
2795,0.0000000000
2796,0.0000000000
2797,0.0000000000
2798,0.0000000000
2799,0.0000000000
2800,0.0000000000
2801,0.0000000000
2802,0.0000000000
2803,0.0000000000
2804,0.0000000000
2805,0.0000000000
2806,0.0000000000
2807,0.0000000000
2808,0.0000000000
2809,0.0000000000
2810,0.0000000000
2811,0.0000000000
2812,0.0000000000
2813,0.0000000000
2814,0.0000000000
2815,0.0000000000
2816,0.0000000000
2817,0.0000000000
2818,0.0000000000
2819,0.0000000000
2820,0.0000000000
2821,0.0000000000
2822,0.0000000000
2823,0.0000000000
2824,0.0000000000
2825,0.0000000000
2826,0.0000000000
2827,0.0000000000
2828,0.0000000000
2829,0.0000000000
2830,0.0000000000
2831,0.0000000000
2832,0.0000000000
2833,0.0000000000
2834,0.0000000000
2835,0.0000000000
2836,0.0000000000
2837,0.0000000000
2838,0.0000000000
2839,0.0000000000
2840,0.0000000000
2841,0.0000000000
2842,0.0000000000
2843,0.0000000000
2844,0.0000000000
2845,0.0000000000
2846,0.0000000000
2847,0.0000000000
2848,0.0000000000
2849,0.0000000000
2850,0.0000000000
2851,0.0000000000
2852,0.0000000000
2853,0.0000000000
2854,0.0000000000
2855,0.0000000000
2856,0.0000000000
2857,0.0000000000
2858,0.0000000000
2859,0.0000000000
2860,0.0000000000
2861,0.0000000000
2862,0.0000000000
2863,0.0000000000
2864,0.0000000000
2865,0.0000000000
2866,0.0000000000
2867,0.0000000000
2868,0.0000000000
2869,0.0000000000
2870,0.0000000000
2871,0.0000000000
2872,0.0000000000
2873,0.0000000000
2874,0.0000000000
2875,0.0000000000
2876,0.0000000000
2877,0.0000000000
2878,0.0000000000
2879,0.0000000000
2880,0.0000000000
2881,0.0000000000
2882,0.0000000000
2883,0.0000000000
2884,0.0000000000
2885,0.0000000000
2886,0.0000000000
2887,0.0000000000
2888,0.0000000000
2889,0.0000000000
2890,0.0000000000
2891,0.0000000000
2892,0.0000000000
2893,0.0000000000
2894,0.0000000000
2895,0.0000000000
2896,0.0000000000
2897,0.0000000000
2898,0.0000000000
2899,0.0000000000
2900,0.0000000000
2901,0.0000000000
2902,0.0000000000
2903,0.0000000000
2904,0.0000000000
2905,0.0000000000
2906,0.0000000000
2907,0.0000000000
2908,0.0000000000
2909,0.0000000000
2910,0.0000000000
2911,0.0000000000
2912,0.0000000000
2913,0.0000000000
2914,0.0000000000
2915,0.0000000000
2916,0.0000000000
2917,0.0000000000
2918,0.0000000000
2919,0.0000000000
2920,0.0000000000
2921,0.0000000000
2922,0.0000000000
2923,0.0000000000
2924,0.0000000000
2925,0.0000000000
2926,0.0000000000
2927,0.0000000000
2928,0.0000000000
2929,0.0000000000
2930,0.0000000000
2931,0.0000000000
2932,0.0000000000
2933,0.0000000000
2934,0.0000000000
2935,0.0000000000
2936,0.0000000000
2937,0.0000000000
2938,0.0000000000
2939,0.0000000000
2940,0.0000000000
2941,0.0000000000
2942,0.0000000000
2943,0.0000000000
2944,0.0000000000
2945,0.0000000000
2946,0.0000000000
2947,0.0000000000
2948,0.0000000000
2949,0.0000000000
2950,0.0000000000
2951,0.0000000000
2952,0.0000000000
2953,0.0000000000
2954,0.0000000000
2955,0.0000000000
2956,0.0000000000
2957,0.0000000000
2958,0.0000000000
2959,0.0000000000
2960,0.0000000000
2961,0.0000000000
2962,0.0000000000
2963,0.0000000000
2964,0.0000000000
2965,0.0000000000
2966,0.0000000000
2967,0.0000000000
2968,0.0000000000
2969,0.0000000000
2970,0.0000000000
2971,0.0000000000
2972,0.0000000000
2973,0.0000000000
2974,0.0000000000
2975,0.0000000000
2976,0.0000000000
2977,0.0000000000
2978,0.0000000000
2979,0.0000000000
2980,0.0000000000
2981,0.0000000000
2982,0.0000000000
2983,0.0000000000
2984,0.0000000000
2985,0.0000000000
2986,0.0000000000
2987,0.0000000000
2988,0.0000000000
2989,0.0000000000
2990,0.0000000000
2991,0.0000000000
2992,0.0000000000
2993,0.0000000000
2994,0.0000000000
2995,0.0000000000
2996,0.0000000000
2997,0.0000000000
2998,0.0000000000
2999,0.0000000000
3000,0.0097751703
3001,3.0791788101
3002,2.4437928199
3003,1.9452590942
3004,1.5444769859
3005,1.2512218952
3006,1.0459432601
3007,0.8504399299
3008,0.7135874748
3009,0.5767350673
3010,0.4789833545
3011,0.4007820129
3012,0.3421309947
3013,0.3128054618
3014,0.2834799575
3015,0.2443792819
3016,0.2346040964
3017,0.2150537729
3018,0.2052785873
3019,0.2248289346
3020,0.2346040964
3021,0.2150537729
3022,0.2834799575
3023,0.2541544437
3024,0.2248289346
3025,0.2150537729
3026,0.1857282543
3027,0.1661779165
3028,0.1466275596
3029,0.1466275596
3030,0.1564027309
3031,0.1466275596
3032,0.1564027309
3033,0.1466275596
3034,0.1564027309
3035,0.1466275596
3036,0.1759530782
3037,0.1564027309
3038,0.1564027309
3039,0.1466275596
3040,0.1466275596
3041,0.1368523955
3042,0.1466275596
3043,0.1564027309
3044,0.1368523955
3045,0.1466275596
3046,0.1564027309
3047,0.1564027309
3048,0.1759530782
3049,0.1857282543
3050,0.1661779165
3051,0.1661779165
3052,0.1759530782
3053,0.1564027309
3054,0.1564027309
3055,0.1857282543
3056,0.1759530782
3057,0.1759530782
3058,0.1564027309
3059,0.1857282543
3060,0.1955034160
3061,0.1857282543
3062,0.2052785873
3063,0.1857282543
3064,0.2052785873
3065,0.1955034160
3066,0.2150537729
3067,0.2346040964
3068,0.2248289346
3069,0.2248289346
3070,0.2248289346
3071,0.2052785873
3072,0.1955034160
3073,0.2248289346
3074,0.2052785873
3075,0.2443792819
3076,0.2150537729
3077,0.2150537729
3078,0.2150537729
3079,0.2052785873
3080,0.2052785873
3081,0.2150537729
3082,0.2052785873
3083,0.2052785873
3084,0.2052785873
3085,0.1955034160
3086,0.1857282543
3087,0.1661779165
3088,0.1759530782
3089,0.1564027309
3090,0.1661779165
3091,0.1564027309
3092,0.1466275596
3093,0.1368523955
3094,0.1466275596
3095,0.1759530782
3096,0.1466275596
3097,0.1466275596
3098,0.1564027309
3099,0.1466275596
3100,0.1466275596
3101,0.1466275596
3102,0.1466275596
3103,0.1368523955
3104,0.1173020482
3105,0.1075268864
3106,0.1075268864
3107,0.1075268864
3108,0.0977517032
3109,0.1075268864
3110,0.0977517032
3111,0.0977517032
3112,0.0977517032
3113,0.1075268864
3114,0.1270772218
3115,0.1075268864
3116,0.1173020482
3117,0.1173020482
3118,0.1173020482
3119,0.1270772218
3120,0.1173020482
3121,0.1075268864
3122,0.1075268864
3123,0.1075268864
3124,0.1173020482
3125,0.1075268864
3126,0.1075268864
3127,0.1173020482
3128,0.1270772218
3129,0.1270772218
3130,0.1173020482
3131,0.1075268864
3132,0.1075268864
3133,0.1075268864
3134,0.0977517032
3135,0.0879765415
3136,0.0977517032
3137,0.1075268864
3138,0.0879765415
3139,0.1075268864
3140,0.0977517032
3141,0.0977517032
3142,0.1075268864
3143,0.0879765415
3144,0.0782013654
3145,0.1075268864
3146,0.0879765415
3147,0.0782013654
3148,0.0977517032
3149,0.0879765415
3150,0.1075268864
3151,0.1173020482
3152,0.1270772218
3153,0.1173020482
3154,0.1075268864
3155,0.1173020482
3156,0.1075268864
3157,0.0879765415
3158,0.1270772218
3159,0.1173020482
3160,0.1173020482
3161,0.1075268864
3162,0.1270772218
3163,0.1270772218
3164,0.1368523955
3165,0.1173020482
3166,0.1173020482
3167,0.1173020482
3168,0.1173020482
3169,0.1075268864
3170,0.0977517032
3171,0.0977517032
3172,0.0977517032
3173,0.0879765415
3174,0.0782013654
3175,0.0879765415
3176,0.0782013654
3177,0.0684261989
3178,0.0782013654
3179,0.0879765415
3180,0.0879765415
3181,0.0782013654
3182,0.0782013654
3183,0.0684261989
3184,0.0782013654
3185,0.0879765415
3186,0.0879765415
3187,0.0782013654
3188,0.0684261989
3189,0.0879765415
3190,0.0879765415
3191,0.0879765415
3192,0.0879765415
3193,0.0879765415
3194,0.0879765415
3195,0.0684261989
3196,0.0879765415
3197,0.0782013654
3198,0.0782013654
3199,0.0782013654
3200,0.0782013654
3201,0.0782013654
3202,0.0782013654
3203,0.0782013654
3204,0.0879765415
3205,0.0782013654
3206,0.0782013654
3207,0.0782013654
3208,0.0879765415
3209,0.0977517032
3210,0.1075268864
3211,0.1270772218
3212,0.1368523955
3213,0.1466275596
3214,0.1661779165
3215,0.1955034160
3216,0.2052785873
3217,0.1955034160
3218,0.2052785873
3219,0.1857282543
3220,0.1857282543
3221,0.1661779165
3222,0.2052785873
3223,0.1857282543
3224,0.2346040964
3225,0.2052785873
3226,0.1857282543
3227,0.1955034160
3228,0.1759530782
3229,0.1466275596
3230,0.1564027309
3231,0.1466275596
3232,0.1466275596
3233,0.1368523955
3234,0.1466275596
3235,0.1661779165
3236,0.1857282543
3237,0.1759530782
3238,0.1759530782
3239,0.1661779165
3240,0.1564027309
3241,0.1564027309
3242,0.1564027309
3243,0.1564027309
3244,0.1368523955
3245,0.1466275596
3246,0.1661779165
3247,0.1564027309
3248,0.1564027309
3249,0.1368523955
3250,0.1368523955
3251,0.1368523955
3252,0.1368523955
3253,0.1368523955
3254,0.1466275596
3255,0.1466275596
3256,0.1564027309
3257,0.1466275596
3258,0.1368523955
3259,0.1270772218
3260,0.1075268864
3261,0.0977517032
3262,0.0977517032
3263,0.0977517032
3264,0.0879765415
3265,0.0977517032
3266,0.1270772218
3267,0.1368523955
3268,0.1368523955
3269,0.1270772218
3270,0.1759530782
3271,0.1661779165
3272,0.1759530782
3273,0.2052785873
3274,0.1857282543
3275,0.1955034160
3276,0.2248289346
3277,0.2150537729
3278,0.2052785873
3279,0.2248289346
3280,0.1955034160
3281,0.1955034160
3282,0.1759530782
3283,0.1564027309
3284,0.1270772218
3285,0.1368523955
3286,0.1270772218
3287,0.1173020482
3288,0.0977517032
3289,0.0879765415
3290,0.0879765415
3291,0.0684261989
3292,0.0684261989
3293,0.0684261989
3294,0.0977517032
3295,0.1173020482
3296,0.1173020482
3297,0.1173020482
3298,0.1075268864
3299,0.1075268864
3300,0.1075268864
3301,0.1173020482
3302,0.1173020482
3303,0.1270772218
3304,0.1075268864
3305,0.1075268864
3306,0.0879765415
3307,0.1075268864
3308,0.0879765415
3309,0.1075268864
3310,0.1173020482
3311,0.1075268864
3312,0.1173020482
3313,0.1173020482
3314,0.1075268864
3315,0.0977517032
3316,0.1075268864
3317,0.0977517032
3318,0.0879765415
3319,0.0977517032
3320,0.0977517032
3321,0.0977517032
3322,0.0977517032
3323,0.0977517032
3324,0.0879765415
3325,0.0879765415
3326,0.0879765415
3327,0.0782013654
3328,0.0782013654
3329,0.0684261989
3330,0.0684261989
3331,0.0586510229
3332,0.0782013654
3333,0.0684261989
3334,0.0586510229
3335,0.0586510229
3336,0.0488758516
3337,0.0684261989
3338,0.0684261989
3339,0.0586510229
3340,0.0782013654
3341,0.0782013654
3342,0.0586510229
3343,0.0879765415
3344,0.0879765415
3345,0.0782013654
3346,0.0684261989
3347,0.0684261989
3348,0.0586510229
3349,0.0391006832
3350,0.0586510229
3351,0.0488758516
3352,0.0488758516
3353,0.0488758516
3354,0.0586510229
3355,0.0586510229
3356,0.0488758516
3357,0.0488758516
3358,0.0586510229
3359,0.0684261989
3360,0.0586510229
3361,0.0586510229
3362,0.0586510229
3363,0.0586510229
3364,0.0488758516
3365,0.0684261989
3366,0.0684261989
3367,0.0684261989
3368,0.0684261989
3369,0.0782013654
3370,0.0684261989
3371,0.0684261989
3372,0.0684261989
3373,0.0586510229
3374,0.0488758516
3375,0.0586510229
3376,0.0488758516
3377,0.0488758516
3378,0.0488758516
3379,0.0684261989
3380,0.0684261989
3381,0.0586510229
3382,0.0684261989
3383,0.0684261989
3384,0.0684261989
3385,0.0684261989
3386,0.0684261989
3387,0.0782013654
3388,0.0782013654
3389,0.0684261989
3390,0.0684261989
3391,0.0586510229
3392,0.0586510229
3393,0.0586510229
3394,0.0684261989
3395,0.0586510229
3396,0.0586510229
3397,0.0684261989
3398,0.0782013654
3399,0.0977517032
3400,0.0879765415
3401,0.0977517032
3402,0.1075268864
3403,0.0977517032
3404,0.1075268864
3405,0.0977517032
3406,0.1075268864
3407,0.1173020482
3408,0.1173020482
3409,0.1173020482
3410,0.1075268864
3411,0.1075268864
3412,0.0977517032
3413,0.0977517032
3414,0.0879765415
3415,0.0879765415
3416,0.0977517032
3417,0.0977517032
3418,0.0879765415
3419,0.0879765415
3420,0.1075268864
3421,0.0977517032
3422,0.0977517032
3423,0.0879765415
3424,0.1075268864
3425,0.0977517032
3426,0.0977517032
3427,0.0879765415
3428,0.0977517032
3429,0.0977517032
3430,0.1075268864
3431,0.1075268864
3432,0.1075268864
3433,0.1075268864
3434,0.0879765415
3435,0.0782013654
3436,0.0782013654
3437,0.0782013654
3438,0.0684261989
3439,0.0782013654
3440,0.0684261989
3441,0.0684261989
3442,0.0782013654
3443,0.0782013654
3444,0.0879765415
3445,0.0879765415
3446,0.0879765415
3447,0.0879765415
3448,0.0879765415
3449,0.0782013654
3450,0.0782013654
3451,0.0977517032
3452,0.0977517032
3453,0.0977517032
3454,0.0879765415
3455,0.0879765415
3456,0.0977517032
3457,0.0879765415
3458,0.0977517032
3459,0.0977517032
3460,0.0977517032
3461,0.0977517032
3462,0.1075268864
3463,0.0977517032
3464,0.0977517032
3465,0.0977517032
3466,0.0977517032
3467,0.1075268864
3468,0.0977517032
3469,0.0879765415
3470,0.0977517032
3471,0.1075268864
3472,0.1173020482
3473,0.1270772218
3474,0.1368523955
3475,0.1270772218
3476,0.1466275596
3477,0.1368523955
3478,0.1270772218
3479,0.1173020482
3480,0.1173020482
3481,0.1075268864
3482,0.1173020482
3483,0.1173020482
3484,0.1270772218
3485,0.1173020482
3486,0.1270772218
3487,0.1270772218
3488,0.1075268864
3489,0.0977517032
3490,0.0977517032
3491,0.0879765415
3492,0.0782013654
3493,0.0879765415
3494,0.0879765415
3495,0.0879765415
3496,0.0879765415
3497,0.0782013654
3498,0.0782013654
3499,0.0782013654
3500,0.0879765415
3501,0.0782013654
3502,0.0782013654
3503,0.0782013654
3504,0.0684261989
3505,0.0586510229
3506,0.0684261989
3507,0.0684261989
3508,0.0684261989
3509,0.0684261989
3510,0.0586510229
3511,0.0488758516
3512,0.0586510229
3513,0.0488758516
3514,0.0488758516
3515,0.0488758516
3516,0.0586510229
3517,0.0488758516
3518,0.0488758516
3519,0.0488758516
3520,0.0488758516
3521,0.0488758516
3522,0.0488758516
3523,0.0488758516
3524,0.0488758516
3525,0.0488758516
3526,0.0488758516
3527,0.0488758516
3528,0.0488758516
3529,0.0488758516
3530,0.0488758516
3531,0.0586510229
3532,0.0488758516
3533,0.0488758516
3534,0.0488758516
3535,0.0391006832
3536,0.0391006832
3537,0.0391006832
3538,0.0488758516
3539,0.0488758516
3540,0.0488758516
3541,0.0488758516
3542,0.0488758516
3543,0.0586510229
3544,0.0488758516
3545,0.0488758516
3546,0.0586510229
3547,0.0586510229
3548,0.0684261989
3549,0.0782013654
3550,0.0782013654
3551,0.0879765415
3552,0.1075268864
3553,0.0977517032
3554,0.1270772218
3555,0.1270772218
3556,0.1466275596
3557,0.1466275596
3558,0.1466275596
3559,0.1466275596
3560,0.1466275596
3561,0.1564027309
3562,0.1466275596
3563,0.1368523955
3564,0.1270772218
3565,0.1270772218
3566,0.1466275596
3567,0.1368523955
3568,0.1270772218
3569,0.1270772218
3570,0.1270772218
3571,0.1270772218
3572,0.1270772218
3573,0.1173020482
3574,0.1173020482
3575,0.1270772218
3576,0.1270772218
3577,0.1368523955
3578,0.1173020482
3579,0.1173020482
3580,0.1270772218
3581,0.1466275596
3582,0.1466275596
3583,0.1270772218
3584,0.1466275596
3585,0.1270772218
3586,0.1270772218
3587,0.1368523955
3588,0.1270772218
3589,0.1564027309
3590,0.1466275596
3591,0.1368523955
3592,0.1270772218
3593,0.1368523955
3594,0.1270772218
3595,0.1173020482
3596,0.1270772218
3597,0.1368523955
3598,0.1564027309
3599,0.1466275596
3600,0.1368523955
3601,0.1270772218
3602,0.1173020482
3603,0.1075268864
3604,0.1173020482
3605,0.1270772218
3606,0.1270772218
3607,0.1368523955
3608,0.1270772218
3609,0.1270772218
3610,0.1270772218
3611,0.1270772218
3612,0.1270772218
3613,0.1466275596
3614,0.1466275596
3615,0.1661779165
3616,0.1661779165
3617,0.1466275596
3618,0.1466275596
3619,0.1466275596
3620,0.1368523955
3621,0.1368523955
3622,0.1270772218
3623,0.1173020482
3624,0.1270772218
3625,0.1270772218
3626,0.1270772218
3627,0.1270772218
3628,0.1270772218
3629,0.1368523955
3630,0.1466275596
3631,0.1270772218
3632,0.1173020482
3633,0.1270772218
3634,0.1173020482
3635,0.1270772218
3636,0.1270772218
3637,0.1173020482
3638,0.1270772218
3639,0.1075268864
3640,0.1075268864
3641,0.1075268864
3642,0.1075268864
3643,0.0977517032
3644,0.0782013654
3645,0.0782013654
3646,0.0684261989
3647,0.0684261989
3648,0.0488758516
3649,0.0488758516
3650,0.0488758516
3651,0.0488758516
3652,0.0488758516
3653,0.0586510229
3654,0.0488758516
3655,0.0684261989
3656,0.0586510229
3657,0.0684261989
3658,0.0586510229
3659,0.0684261989
3660,0.0586510229
3661,0.0586510229
3662,0.0586510229
3663,0.0586510229
3664,0.0684261989
3665,0.0586510229
3666,0.0586510229
3667,0.0684261989
3668,0.0586510229
3669,0.0488758516
3670,0.0488758516
3671,0.0391006832
3672,0.0488758516
3673,0.0488758516
3674,0.0586510229
3675,0.0488758516
3676,0.0488758516
3677,0.0488758516
3678,0.0586510229
3679,0.0684261989
3680,0.0684261989
3681,0.0684261989
3682,0.0586510229
3683,0.0586510229
3684,0.0684261989
3685,0.0586510229
3686,0.0488758516
3687,0.0488758516
3688,0.0586510229
3689,0.0586510229
3690,0.0488758516
3691,0.0488758516
3692,0.0488758516
3693,0.0586510229
3694,0.0488758516
3695,0.0488758516
3696,0.0391006832
3697,0.0488758516
3698,0.0586510229
3699,0.0586510229
3700,0.0488758516
3701,0.0391006832
3702,0.0488758516
3703,0.0488758516
3704,0.0391006832
3705,0.0391006832
3706,0.0488758516
3707,0.0391006832
3708,0.0488758516
3709,0.0586510229
3710,0.0586510229
3711,0.0488758516
3712,0.0488758516
3713,0.0684261989
3714,0.0684261989
3715,0.0586510229
3716,0.0586510229
3717,0.0586510229
3718,0.0488758516
3719,0.0488758516
3720,0.0488758516
3721,0.0488758516
3722,0.0684261989
3723,0.0488758516
3724,0.0488758516
3725,0.0586510229
3726,0.0391006832
3727,0.0488758516
3728,0.0586510229
3729,0.0586510229
3730,0.0586510229
3731,0.0586510229
3732,0.0586510229
3733,0.0684261989
3734,0.0782013654
3735,0.0684261989
3736,0.0684261989
3737,0.0684261989
3738,0.0586510229
3739,0.0586510229
3740,0.0586510229
3741,0.0684261989
3742,0.0684261989
3743,0.0684261989
3744,0.0782013654
3745,0.0782013654
3746,0.0684261989
3747,0.0782013654
3748,0.0684261989
3749,0.0684261989
3750,0.0586510229
3751,0.0586510229
3752,0.0684261989
3753,0.0684261989
3754,0.0782013654
3755,0.0782013654
3756,0.0782013654
3757,0.0977517032
3758,0.1075268864
3759,0.1075268864
3760,0.1075268864
3761,0.1173020482
3762,0.1368523955
3763,0.1270772218
3764,0.1173020482
3765,0.1075268864
3766,0.1075268864
3767,0.1173020482
3768,0.1368523955
3769,0.1564027309
3770,0.1661779165
3771,0.1661779165
3772,0.1564027309
3773,0.1564027309
3774,0.1466275596
3775,0.1466275596
3776,0.1466275596
3777,0.1466275596
3778,0.1368523955
3779,0.1368523955
3780,0.1270772218
3781,0.1564027309
3782,0.1661779165
3783,0.1564027309
3784,0.1368523955
3785,0.1564027309
3786,0.1466275596
3787,0.1368523955
3788,0.1368523955
3789,0.1466275596
3790,0.1368523955
3791,0.1368523955
3792,0.1368523955
3793,0.1270772218
3794,0.1173020482
3795,0.1075268864
3796,0.1075268864
3797,0.1270772218
3798,0.1173020482
3799,0.1564027309
3800,0.1661779165
3801,0.1466275596
3802,0.1270772218
3803,0.1173020482
3804,0.1075268864
3805,0.0879765415
3806,0.0977517032
3807,0.1075268864
3808,0.0977517032
3809,0.1075268864
3810,0.1075268864
3811,0.0977517032
3812,0.0977517032
3813,0.0977517032
3814,0.0977517032
3815,0.0977517032
3816,0.0977517032
3817,0.0977517032
3818,0.0879765415
3819,0.0879765415
3820,0.1075268864
3821,0.0977517032
3822,0.0782013654
3823,0.0977517032
3824,0.0977517032
3825,0.0879765415
3826,0.0782013654
3827,0.0782013654
3828,0.0782013654
3829,0.0684261989
3830,0.0586510229
3831,0.0586510229
3832,0.0684261989
3833,0.0586510229
3834,0.0586510229
3835,0.0586510229
3836,0.0586510229
3837,0.0586510229
3838,0.0586510229
3839,0.0586510229
3840,0.0684261989
3841,0.0684261989
3842,0.0684261989
3843,0.0684261989
3844,0.0684261989
3845,0.0684261989
3846,0.0782013654
3847,0.0782013654
3848,0.0782013654
3849,0.0684261989
3850,0.0684261989
3851,0.0782013654
3852,0.0782013654
3853,0.0586510229
3854,0.0684261989
3855,0.0586510229
3856,0.0586510229
3857,0.0684261989
3858,0.0684261989
3859,0.0586510229
3860,0.0586510229
3861,0.0586510229
3862,0.0488758516
3863,0.0586510229
3864,0.0586510229
3865,0.0586510229
3866,0.0586510229
3867,0.0586510229
3868,0.0586510229
3869,0.0586510229
3870,0.0684261989
3871,0.0684261989
3872,0.0684261989
3873,0.0684261989
3874,0.0684261989
3875,0.0586510229
3876,0.0488758516
3877,0.0488758516
3878,0.0586510229
3879,0.0586510229
3880,0.0586510229
3881,0.0684261989
3882,0.0684261989
3883,0.0586510229
3884,0.0586510229
3885,0.0586510229
3886,0.0586510229
3887,0.0586510229
3888,0.0586510229
3889,0.0586510229
3890,0.0586510229
3891,0.0586510229
3892,0.0586510229
3893,0.0684261989
3894,0.0586510229
3895,0.0586510229
3896,0.0782013654
3897,0.0684261989
3898,0.0684261989
3899,0.0586510229
3900,0.0586510229
3901,0.0586510229
3902,0.0488758516
3903,0.0488758516
3904,0.0488758516
3905,0.0488758516
3906,0.0488758516
3907,0.0391006832
3908,0.0391006832
3909,0.0488758516
3910,0.0488758516
3911,0.0391006832
3912,0.0488758516
3913,0.0488758516
3914,0.0586510229
3915,0.0488758516
3916,0.0586510229
3917,0.0586510229
3918,0.0684261989
3919,0.0684261989
3920,0.0782013654
3921,0.0782013654
3922,0.0879765415
3923,0.0782013654
3924,0.0684261989
3925,0.0879765415
3926,0.0684261989
3927,0.0782013654
3928,0.0782013654
3929,0.0684261989
3930,0.0782013654
3931,0.0684261989
3932,0.0684261989
3933,0.0586510229
3934,0.0586510229
3935,0.0684261989
3936,0.0684261989
3937,0.0684261989
3938,0.0684261989
3939,0.0684261989
3940,0.0684261989
3941,0.0782013654
3942,0.0782013654
3943,0.0684261989
3944,0.0586510229
3945,0.0586510229
3946,0.0586510229
3947,0.0586510229
3948,0.0586510229
3949,0.0586510229
3950,0.0684261989
3951,0.0782013654
3952,0.0879765415
3953,0.0977517032
3954,0.0782013654
3955,0.0879765415
3956,0.1075268864
3957,0.1173020482
3958,0.1075268864
3959,0.1173020482
3960,0.1075268864
3961,0.1173020482
3962,0.1173020482
3963,0.1270772218
3964,0.1173020482
3965,0.1173020482
3966,0.1173020482
3967,0.1270772218
3968,0.1075268864
3969,0.1466275596
3970,0.1564027309
3971,0.1466275596
3972,0.1564027309
3973,0.1564027309
3974,0.1466275596
3975,0.1368523955
3976,0.1173020482
3977,0.1075268864
3978,0.0977517032
3979,0.1075268864
3980,0.1075268864
3981,0.0977517032
3982,0.0977517032
3983,0.0977517032
3984,0.1075268864
3985,0.1075268864
3986,0.1075268864
3987,0.1075268864
3988,0.1075268864
3989,0.1075268864
3990,0.1173020482
3991,0.1173020482
3992,0.1075268864
3993,0.0879765415
3994,0.0879765415
3995,0.0977517032
3996,0.0879765415
3997,0.0879765415
3998,0.0879765415
3999,0.0879765415
0,0.0977517032
1,0.8797654151
2,0.7233626842
3,0.5962854385
4,0.4887585639
5,0.4007820129
6,0.3225806236
7,0.2737047910
8,0.2248289346
9,0.1857282543
10,0.1564027309
11,0.1368523955
12,0.1075268864
13,0.0977517032
14,0.0782013654
15,0.0586510229
16,0.0488758516
17,0.0488758516
18,0.0293255119
19,0.0293255119
20,0.0195503416
21,0.0195503416
22,0.0195503416
23,0.0097751703
24,0.0097751703
25,0.0097751703
26,0.0097751703
27,0.0097751703
28,0.0000000000
29,0.0000000000
30,0.0000000000
31,0.0097751703
32,0.0195503416
33,0.0293255119
34,0.0293255119
35,0.0293255119
36,0.0195503416
37,0.0195503416
38,0.0195503416
39,0.0097751703
40,0.0097751703
41,0.0097751703
42,0.0097751703
43,0.0097751703
44,0.0097751703
45,0.0097751703
46,0.0000000000
47,0.0000000000
48,0.0097751703
49,0.0097751703
50,0.0097751703
51,0.0000000000
52,0.0000000000
53,0.0000000000
54,0.0000000000
55,0.0000000000
56,0.0000000000
57,0.0000000000
58,0.0000000000
59,0.0000000000
60,0.0097751703
61,0.0000000000
62,0.0000000000
63,0.0000000000
64,0.0000000000
65,0.0000000000
66,0.0000000000
67,0.0000000000
68,0.0000000000
69,0.0000000000
70,0.0000000000
71,0.0000000000
72,0.0000000000
73,0.0000000000
74,0.0000000000
75,0.0000000000
76,0.0000000000
77,0.0000000000
78,0.0097751703
79,0.0195503416
80,0.0293255119
81,0.0391006832
82,0.0391006832
83,0.0293255119
84,0.0195503416
85,0.0195503416
86,0.0195503416
87,0.0195503416
88,0.0195503416
89,0.0097751703
90,0.0097751703
91,0.0195503416
92,0.0195503416
93,0.0195503416
94,0.0097751703
95,0.0097751703
96,0.0195503416
97,0.0195503416
98,0.0195503416
99,0.0097751703
100,0.0097751703
101,0.0097751703
102,0.0195503416
103,0.0195503416
104,0.0097751703
105,0.0097751703
106,0.0195503416
107,0.0195503416
108,0.0195503416
109,0.0195503416
110,0.0293255119
111,0.0293255119
112,0.0293255119
113,0.0195503416
114,0.0097751703
115,0.0097751703
116,0.0000000000
117,0.0097751703
118,0.0000000000
119,0.0000000000
120,0.0000000000
121,0.0000000000
122,0.0000000000
123,0.0000000000
124,0.0000000000
125,0.0000000000
126,0.0000000000
127,0.0000000000
128,0.0000000000
129,0.0000000000
130,0.0000000000
131,0.0000000000
132,0.0000000000
133,0.0000000000
134,0.0000000000
135,0.0000000000
136,0.0000000000
137,0.0000000000
138,0.0000000000
139,0.0000000000
140,0.0000000000
141,0.0000000000
142,0.0000000000
143,0.0097751703
144,0.0097751703
145,0.0097751703
146,0.0097751703
147,0.0097751703
148,0.0097751703
149,0.0097751703
150,0.0097751703
151,0.0097751703
152,0.0195503416
153,0.0195503416
154,0.0195503416
155,0.0293255119
156,0.0293255119
157,0.0488758516
158,0.0391006832
159,0.0488758516
160,0.0488758516
161,0.0488758516
162,0.0586510229
163,0.0586510229
164,0.0586510229
165,0.0586510229
166,0.0684261989
167,0.0684261989
168,0.0684261989
169,0.0684261989
170,0.0684261989
171,0.0684261989
172,0.0782013654
173,0.0977517032
174,0.1075268864
175,0.0977517032
176,0.0977517032
177,0.0879765415
178,0.0782013654
179,0.0782013654
180,0.0684261989
181,0.0684261989
182,0.0586510229
183,0.0586510229
184,0.0586510229
185,0.0586510229
186,0.0586510229
187,0.0586510229
188,0.0488758516
189,0.0391006832
190,0.0488758516
191,0.0586510229
192,0.0391006832
193,0.0391006832
194,0.0293255119
195,0.0293255119
196,0.0293255119
197,0.0293255119
198,0.0293255119
199,0.0293255119
200,0.0391006832
201,0.0293255119
202,0.0293255119
203,0.0293255119
204,0.0293255119
205,0.0195503416
206,0.0195503416
207,0.0195503416
208,0.0293255119
209,0.0293255119
210,0.0293255119
211,0.0195503416
212,0.0195503416
213,0.0195503416
214,0.0097751703
215,0.0195503416
216,0.0097751703
217,0.0097751703
218,0.0097751703
219,0.0097751703
220,0.0000000000
221,0.0000000000
222,0.0000000000
223,0.0000000000
224,0.0000000000
225,0.0000000000
226,0.0000000000
227,0.0000000000
228,0.0000000000
229,0.0000000000
230,0.0000000000
231,0.0000000000
232,0.0195503416
233,0.0293255119
234,0.0293255119
235,0.0293255119
236,0.0293255119
237,0.0195503416
238,0.0195503416
239,0.0097751703
240,0.0097751703
241,0.0097751703
242,0.0097751703
243,0.0097751703
244,0.0000000000
245,0.0000000000
246,0.0000000000
247,0.0000000000
248,0.0097751703
249,0.0000000000
250,0.0000000000
251,0.0000000000
252,0.0000000000
253,0.0000000000
254,0.0000000000
255,0.0000000000
256,0.0000000000
257,0.0195503416
258,0.0097751703
259,0.0097751703
260,0.0000000000
261,0.0097751703
262,0.0000000000
263,0.0000000000
264,0.0000000000
265,0.0000000000
266,0.0000000000
267,0.0000000000
268,0.0000000000
269,0.0000000000
270,0.0000000000
271,0.0000000000
272,0.0000000000
273,0.0000000000
274,0.0000000000
275,0.0000000000
276,0.0000000000
277,0.0000000000
278,0.0000000000
279,0.0391006832
280,0.0391006832
281,0.0391006832
282,0.0391006832
283,0.0293255119
284,0.0391006832
285,0.0586510229
286,0.0586510229
287,0.0488758516
288,0.0488758516
289,0.0391006832
290,0.0293255119
291,0.0195503416
292,0.0195503416
293,0.0195503416
294,0.0195503416
295,0.0293255119
296,0.0293255119
297,0.0293255119
298,0.0195503416
299,0.0195503416
300,0.0097751703
301,0.0097751703
302,0.0195503416
303,0.0195503416
304,0.0097751703
305,0.0097751703
306,0.0195503416
307,0.0097751703
308,0.0097751703
309,0.0097751703
310,0.0195503416
311,0.0195503416
312,0.0195503416
313,0.0195503416
314,0.0195503416
315,0.0195503416
316,0.0097751703
317,0.0097751703
318,0.0097751703
319,0.0097751703
320,0.0097751703
321,0.0097751703
322,0.0097751703
323,0.0000000000
324,0.0000000000
325,0.0000000000
326,0.0000000000
327,0.0000000000
328,0.0000000000
329,0.0000000000
330,0.0000000000
331,0.0000000000
332,0.0000000000
333,0.0000000000
334,0.0000000000
335,0.0000000000
336,0.0000000000
337,0.0000000000
338,0.0097751703
339,0.0391006832
340,0.0586510229
341,0.0684261989
342,0.0684261989
343,0.0586510229
344,0.0586510229
345,0.0488758516
346,0.0488758516
347,0.0488758516
348,0.0488758516
349,0.0488758516
350,0.0488758516
351,0.0391006832
352,0.0391006832
353,0.0391006832
354,0.0391006832
355,0.0391006832
356,0.0488758516
357,0.0488758516
358,0.0586510229
359,0.0488758516
360,0.0391006832
361,0.0391006832
362,0.0488758516
363,0.0488758516
364,0.0488758516
365,0.0488758516
366,0.0488758516
367,0.0586510229
368,0.1270772218
369,0.1075268864
370,0.1075268864
371,0.1270772218
372,0.1075268864
373,0.1075268864
374,0.1075268864
375,0.0879765415
376,0.0879765415
377,0.0684261989
378,0.0684261989
379,0.0782013654
380,0.0782013654
381,0.0684261989
382,0.0684261989
383,0.0684261989
384,0.0488758516
385,0.0488758516
386,0.0391006832
387,0.0293255119
388,0.0293255119
389,0.0391006832
390,0.0391006832
391,0.0293255119
392,0.0391006832
393,0.0391006832
394,0.0391006832
395,0.0293255119
396,0.0293255119
397,0.0293255119
398,0.0195503416
399,0.0195503416
400,0.0195503416
401,0.0195503416
402,0.0195503416
403,0.0195503416
404,0.0097751703
405,0.0097751703
406,0.0097751703
407,0.0097751703
408,0.0000000000
409,0.0000000000
410,0.0000000000
411,0.0000000000
412,0.0000000000
413,0.0000000000
414,0.0000000000
415,0.0000000000
416,0.0000000000
417,0.0000000000
418,0.0000000000
419,0.0000000000
420,0.0000000000
421,0.0000000000
422,0.0000000000
423,0.0000000000
424,0.0000000000
425,0.0195503416
426,0.0195503416
427,0.0195503416
428,0.0293255119
429,0.0293255119
430,0.0293255119
431,0.0195503416
432,0.0293255119
433,0.0293255119
434,0.0195503416
435,0.0195503416
436,0.0195503416
437,0.0195503416
438,0.0195503416
439,0.0195503416
440,0.0097751703
441,0.0097751703
442,0.0097751703
443,0.0000000000
444,0.0000000000
445,0.0000000000
446,0.0000000000
447,0.0000000000
448,0.0000000000
449,0.0000000000
450,0.0097751703
451,0.0097751703
452,0.0000000000
453,0.0097751703
454,0.0000000000
455,0.0097751703
456,0.0000000000
457,0.0000000000
458,0.0000000000
459,0.0000000000
460,0.0000000000
461,0.0000000000
462,0.0000000000
463,0.0000000000
464,0.0000000000
465,0.0000000000
466,0.0000000000
467,0.0000000000
468,0.0000000000
469,0.0000000000
470,0.0000000000
471,0.0391006832
472,0.0391006832
473,0.0488758516
474,0.0391006832
475,0.0488758516
476,0.0293255119
477,0.0293255119
478,0.0293255119
479,0.0195503416
480,0.0097751703
481,0.0195503416
482,0.0097751703
483,0.0195503416
484,0.0195503416
485,0.0195503416
486,0.0097751703
487,0.0097751703
488,0.0097751703
489,0.0097751703
490,0.0097751703
491,0.0097751703
492,0.0097751703
493,0.0000000000
494,0.0000000000
495,0.0000000000
496,0.0000000000
497,0.0000000000
498,0.0000000000
499,0.0000000000
500,0.0097751703
501,0.0097751703
502,0.0097751703
503,0.0097751703
504,0.0097751703
505,0.0195503416
506,0.0293255119
507,0.0293255119
508,0.0293255119
509,0.0293255119
510,0.0195503416
511,0.0195503416
512,0.0097751703
513,0.0097751703
514,0.0097751703
515,0.0097751703
516,0.0097751703
517,0.0000000000
518,0.0000000000
519,0.0000000000
520,0.0000000000
521,0.0000000000
522,0.0000000000
523,0.0000000000
524,0.0097751703
525,0.0097751703
526,0.0000000000
527,0.0097751703
528,0.0000000000
529,0.0097751703
530,0.0097751703
531,0.0097751703
532,0.0097751703
533,0.0097751703
534,0.0097751703
535,0.0195503416
536,0.0195503416
537,0.0195503416
538,0.0195503416
539,0.0195503416
540,0.0195503416
541,0.0293255119
542,0.0391006832
543,0.0293255119
544,0.0391006832
545,0.0293255119
546,0.0391006832
547,0.0391006832
548,0.0391006832
549,0.0391006832
550,0.0391006832
551,0.0391006832
552,0.0391006832
553,0.0391006832
554,0.0391006832
555,0.0391006832
556,0.0293255119
557,0.1075268864
558,0.0879765415
559,0.0782013654
560,0.0684261989
561,0.0684261989
562,0.0684261989
563,0.0879765415
564,0.0879765415
565,0.0977517032
566,0.0879765415
567,0.0879765415
568,0.0879765415
569,0.0977517032
570,0.0879765415
571,0.0977517032
572,0.0879765415
573,0.0782013654
574,0.0684261989
575,0.0586510229
576,0.0684261989
577,0.0586510229
578,0.0488758516
579,0.0488758516
580,0.0488758516
581,0.0488758516
582,0.0488758516
583,0.0488758516
584,0.0488758516
585,0.0488758516
586,0.0391006832
587,0.0391006832
588,0.0391006832
589,0.0391006832
590,0.0391006832
591,0.0293255119
592,0.0293255119
593,0.0293255119
594,0.0293255119
595,0.0293255119
596,0.0391006832
597,0.0391006832
598,0.0391006832
599,0.0391006832
600,0.0391006832
601,0.0293255119
602,0.0391006832
603,0.0293255119
604,0.0195503416
605,0.0195503416
606,0.0195503416
607,0.0097751703
608,0.0097751703
609,0.0097751703
610,0.0097751703
611,0.0000000000
612,0.0000000000
613,0.0000000000
614,0.0000000000
615,0.0000000000
616,0.0000000000
617,0.0000000000
618,0.0000000000
619,0.0000000000
620,0.0000000000
621,0.0000000000
622,0.0000000000
623,0.0000000000
624,0.0000000000
625,0.0097751703
626,0.0097751703
627,0.0097751703
628,0.0195503416
629,0.0195503416
630,0.0097751703
631,0.0097751703
632,0.0195503416
633,0.0195503416
634,0.0097751703
635,0.0097751703
636,0.0097751703
637,0.0097751703
638,0.0000000000
639,0.0000000000
640,0.0000000000
641,0.0000000000
642,0.0000000000
643,0.0000000000
644,0.0000000000
645,0.0000000000
646,0.0000000000
647,0.0000000000
648,0.0000000000
649,0.0000000000
650,0.0000000000
651,0.0000000000
652,0.0000000000
653,0.0000000000
654,0.0000000000
655,0.0000000000
656,0.0000000000
657,0.0000000000
658,0.0000000000
659,0.0000000000
660,0.0000000000
661,0.0000000000
662,0.0000000000
663,0.0097751703
664,0.0195503416
665,0.0195503416
666,0.0293255119
667,0.0293255119
668,0.0195503416
669,0.0195503416
670,0.0097751703
671,0.0097751703
672,0.0097751703
673,0.0097751703
674,0.0000000000
675,0.0000000000
676,0.0000000000
677,0.0097751703
678,0.0000000000
679,0.0000000000
680,0.0000000000
681,0.0097751703
682,0.0000000000
683,0.0097751703
684,0.0097751703
685,0.0097751703
686,0.0097751703
687,0.0000000000
688,0.0000000000
689,0.0000000000
690,0.0000000000
691,0.0000000000
692,0.0000000000
693,0.0097751703
694,0.0000000000
695,0.0097751703
696,0.0195503416
697,0.0195503416
698,0.0195503416
699,0.0195503416
700,0.0195503416
701,0.0195503416
702,0.0195503416
703,0.0195503416
704,0.0097751703
705,0.0097751703
706,0.0097751703
707,0.0000000000
708,0.0000000000
709,0.0000000000
710,0.0000000000
711,0.0097751703
712,0.0097751703
713,0.0097751703
714,0.0000000000
715,0.0000000000
716,0.0000000000
717,0.0000000000
718,0.0000000000
719,0.0000000000
720,0.0000000000
721,0.0000000000
722,0.0097751703
723,0.0097751703
724,0.0097751703
725,0.0195503416
726,0.0195503416
727,0.0195503416
728,0.0293255119
729,0.0293255119
730,0.0293255119
731,0.0293255119
732,0.0293255119
733,0.0195503416
734,0.0293255119
735,0.0195503416
736,0.0195503416
737,0.0293255119
738,0.0195503416
739,0.0293255119
740,0.0293255119
741,0.0293255119
742,0.0293255119
743,0.0391006832
744,0.0391006832
745,0.0391006832
746,0.0391006832
747,0.0391006832
748,0.0391006832
749,0.0488758516
750,0.0488758516
751,0.0488758516
752,0.0391006832
753,0.0391006832
754,0.0586510229
755,0.0586510229
756,0.0586510229
757,0.0879765415
758,0.0977517032
759,0.0879765415
760,0.0782013654
761,0.0684261989
762,0.0586510229
763,0.0586510229
764,0.0586510229
765,0.0586510229
766,0.0488758516
767,0.0391006832
768,0.0293255119
769,0.0293255119
770,0.0293255119
771,0.0293255119
772,0.0293255119
773,0.0195503416
774,0.0195503416
775,0.0195503416
776,0.0097751703
777,0.0195503416
778,0.0195503416
779,0.0195503416
780,0.0195503416
781,0.0195503416
782,0.0293255119
783,0.0195503416
784,0.0195503416
785,0.0195503416
786,0.0097751703
787,0.0195503416
788,0.0195503416
789,0.0293255119
790,0.0293255119
791,0.0391006832
792,0.0293255119
793,0.0293255119
794,0.0195503416
795,0.0195503416
796,0.0097751703
797,0.0097751703
798,0.0097751703
799,0.0097751703
800,0.0097751703
801,0.0000000000
802,0.0097751703
803,0.0097751703
804,0.0000000000
805,0.0000000000
806,0.0000000000
807,0.0000000000
808,0.0097751703
809,0.0097751703
810,0.0097751703
811,0.0097751703
812,0.0097751703
813,0.0000000000
814,0.0097751703
815,0.0000000000
816,0.0000000000
817,0.0000000000
818,0.0000000000
819,0.0000000000
820,0.0000000000
821,0.0097751703
822,0.0097751703
823,0.0097751703
824,0.0097751703
825,0.0097751703
826,0.0097751703
827,0.0097751703
828,0.0097751703
829,0.0097751703
830,0.0293255119
831,0.0293255119
832,0.0195503416
833,0.0097751703
834,0.0097751703
835,0.0195503416
836,0.0195503416
837,0.0097751703
838,0.0097751703
839,0.0097751703
840,0.0097751703
841,0.0097751703
842,0.0000000000
843,0.0000000000
844,0.0097751703
845,0.0000000000
846,0.0097751703
847,0.0000000000
848,0.0000000000
849,0.0000000000
850,0.0000000000
851,0.0000000000
852,0.0195503416
853,0.0195503416
854,0.0293255119
855,0.0391006832
856,0.0293255119
857,0.0293255119
858,0.0195503416
859,0.0195503416
860,0.0097751703
861,0.0097751703
862,0.0195503416
863,0.0391006832
864,0.0391006832
865,0.0488758516
866,0.0586510229
867,0.0488758516
868,0.0391006832
869,0.0293255119
870,0.0293255119
871,0.0195503416
872,0.0195503416
873,0.0097751703
874,0.0097751703
875,0.0195503416
876,0.0097751703
877,0.0000000000
878,0.0000000000
879,0.0097751703
880,0.0097751703
881,0.0097751703
882,0.0097751703
883,0.0097751703
884,0.0097751703
885,0.0097751703
886,0.0097751703
887,0.0097751703
888,0.0195503416
889,0.0097751703
890,0.0097751703
891,0.0097751703
892,0.0097751703
893,0.0097751703
894,0.0000000000
895,0.0000000000
896,0.0000000000
897,0.0000000000
898,0.0097751703
899,0.0000000000
900,0.0000000000
901,0.0000000000
902,0.0000000000
903,0.0000000000
904,0.0000000000
905,0.0000000000
906,0.0000000000
907,0.0000000000
908,0.0000000000
909,0.0000000000
910,0.0000000000
911,0.0097751703
912,0.0097751703
913,0.0195503416
914,0.0195503416
915,0.0293255119
916,0.0488758516
917,0.0488758516
918,0.0488758516
919,0.0488758516
920,0.0586510229
921,0.0586510229
922,0.0488758516
923,0.0391006832
924,0.0488758516
925,0.0488758516
926,0.0391006832
927,0.0488758516
928,0.0488758516
929,0.0586510229
930,0.0586510229
931,0.0488758516
932,0.0488758516
933,0.0488758516
934,0.0586510229
935,0.0586510229
936,0.0488758516
937,0.0586510229
938,0.0488758516
939,0.0586510229
940,0.0586510229
941,0.0879765415
942,0.0977517032
943,0.1075268864
944,0.1173020482
945,0.1173020482
946,0.1173020482
947,0.1075268864
948,0.1075268864
949,0.1075268864
950,0.0879765415
951,0.0879765415
952,0.0684261989
953,0.0684261989
954,0.0586510229
955,0.0684261989
956,0.0684261989
957,0.0586510229
958,0.0488758516
959,0.0586510229
960,0.0684261989
961,0.0586510229
962,0.0488758516
963,0.0488758516
964,0.0391006832
965,0.0391006832
966,0.0391006832
967,0.0293255119
968,0.0391006832
969,0.0293255119
970,0.0293255119
971,0.0293255119
972,0.0293255119
973,0.0293255119
974,0.0391006832
975,0.0293255119
976,0.0293255119
977,0.0195503416
978,0.0195503416
979,0.0195503416
980,0.0097751703
981,0.0097751703
982,0.0097751703
983,0.0097751703
984,0.0097751703
985,0.0000000000
986,0.0000000000
987,0.0000000000
988,0.0000000000
989,0.0000000000
990,0.0000000000
991,0.0000000000
992,0.0000000000
993,0.0000000000
994,0.0000000000
995,0.0000000000
996,0.0195503416
997,0.0195503416
998,0.0195503416
999,0.0097751703
1000,0.0293255119
1001,0.8699902534
1002,0.6744868278
1003,0.5376344203
1004,0.4594330310
1005,0.3910068321
1006,0.3225806236
1007,0.2639296054
1008,0.2052785873
1009,0.1564027309
1010,0.1368523955
1011,0.0977517032
1012,0.0879765415
1013,0.0684261989
1014,0.0488758516
1015,0.0391006832
1016,0.0293255119
1017,0.0293255119
1018,0.0195503416
1019,0.0097751703
1020,0.0293255119
1021,0.0391006832
1022,0.0391006832
1023,0.0391006832
1024,0.0391006832
1025,0.0293255119
1026,0.0293255119
1027,0.0391006832
1028,0.0391006832
1029,0.0293255119
1030,0.0391006832
1031,0.0293255119
1032,0.0293255119
1033,0.0391006832
1034,0.0391006832
1035,0.0293255119
1036,0.0293255119
1037,0.0293255119
1038,0.0293255119
1039,0.0293255119
1040,0.0391006832
1041,0.0293255119
1042,0.0586510229
1043,0.0488758516
1044,0.0391006832
1045,0.0391006832
1046,0.0293255119
1047,0.0293255119
1048,0.0293255119
1049,0.0293255119
1050,0.0195503416
1051,0.0195503416
1052,0.0097751703
1053,0.0097751703
1054,0.0097751703
1055,0.0097751703
1056,0.0195503416
1057,0.0097751703
1058,0.0097751703
1059,0.0097751703
1060,0.0097751703
1061,0.0097751703
1062,0.0097751703
1063,0.0097751703
1064,0.0097751703
1065,0.0097751703
1066,0.0097751703
1067,0.0097751703
1068,0.0097751703
1069,0.0097751703
1070,0.0195503416
1071,0.0293255119
1072,0.0293255119
1073,0.0293255119
1074,0.0293255119
1075,0.0293255119
1076,0.0293255119
1077,0.0195503416
1078,0.0195503416
1079,0.0195503416
1080,0.0195503416
1081,0.0293255119
1082,0.0293255119
1083,0.0293255119
1084,0.0293255119
1085,0.0293255119
1086,0.0293255119
1087,0.0293255119
1088,0.0293255119
1089,0.0391006832
1090,0.0391006832
1091,0.0488758516
1092,0.0488758516
1093,0.0488758516
1094,0.0586510229
1095,0.0488758516
1096,0.0586510229
1097,0.0684261989
1098,0.0684261989
1099,0.0586510229
1100,0.0488758516
1101,0.0488758516
1102,0.0391006832
1103,0.0488758516
1104,0.0586510229
1105,0.0684261989
1106,0.0586510229
1107,0.0586510229
1108,0.0684261989
1109,0.0684261989
1110,0.0684261989
1111,0.0684261989
1112,0.0684261989
1113,0.0782013654
1114,0.0782013654
1115,0.0684261989
1116,0.0684261989
1117,0.0977517032
1118,0.1368523955
1119,0.1173020482
1120,0.1075268864
1121,0.0977517032
1122,0.0879765415
1123,0.0879765415
1124,0.1075268864
1125,0.1075268864
1126,0.0977517032
1127,0.0782013654
1128,0.0684261989
1129,0.0684261989
1130,0.0586510229
1131,0.0488758516
1132,0.0488758516
1133,0.0391006832
1134,0.0293255119
1135,0.0293255119
1136,0.0293255119
1137,0.0293255119
1138,0.0293255119
1139,0.0195503416
1140,0.0195503416
1141,0.0195503416
1142,0.0195503416
1143,0.0195503416
1144,0.0195503416
1145,0.0195503416
1146,0.0195503416
1147,0.0097751703
1148,0.0097751703
1149,0.0195503416
1150,0.0293255119
1151,0.0391006832
1152,0.0293255119
1153,0.0391006832
1154,0.0391006832
1155,0.0293255119
1156,0.0195503416
1157,0.0195503416
1158,0.0195503416
1159,0.0195503416
1160,0.0195503416
1161,0.0195503416
1162,0.0097751703
1163,0.0097751703
1164,0.0684261989
1165,0.1075268864
1166,0.1075268864
1167,0.0782013654
1168,0.0586510229
1169,0.0586510229
1170,0.0586510229
1171,0.0586510229
1172,0.0488758516
1173,0.0586510229
1174,0.0586510229
1175,0.0488758516
1176,0.0488758516
1177,0.0488758516
1178,0.0391006832
1179,0.0391006832
1180,0.0391006832
1181,0.0391006832
1182,0.0293255119
1183,0.0293255119
1184,0.0293255119
1185,0.0293255119
1186,0.0391006832
1187,0.0293255119
1188,0.0391006832
1189,0.0293255119
1190,0.0293255119
1191,0.0293255119
1192,0.0293255119
1193,0.0391006832
1194,0.0391006832
1195,0.0391006832
1196,0.0293255119
1197,0.0195503416
1198,0.0195503416
1199,0.0195503416
1200,0.0391006832
1201,0.0391006832
1202,0.0293255119
1203,0.0293255119
1204,0.0293255119
1205,0.0293255119
1206,0.0293255119
1207,0.0293255119
1208,0.0293255119
1209,0.0293255119
1210,0.0293255119
1211,0.0293255119
1212,0.0293255119
1213,0.0293255119
1214,0.0391006832
1215,0.0293255119
1216,0.0391006832
1217,0.0293255119
1218,0.0293255119
1219,0.0293255119
1220,0.0391006832
1221,0.0391006832
1222,0.0391006832
1223,0.0391006832
1224,0.0293255119
1225,0.0195503416
1226,0.0195503416
1227,0.0097751703
1228,0.0097751703
1229,0.0097751703
1230,0.0097751703
1231,0.0000000000
1232,0.0000000000
1233,0.0000000000
1234,0.0000000000
1235,0.0000000000
1236,0.0000000000
1237,0.0000000000
1238,0.0097751703
1239,0.0195503416
1240,0.0195503416
1241,0.0195503416
1242,0.0488758516
1243,0.0488758516
1244,0.0488758516
1245,0.0488758516
1246,0.0586510229
1247,0.0684261989
1248,0.0586510229
1249,0.0586510229
1250,0.0488758516
1251,0.0488758516
1252,0.0488758516
1253,0.0586510229
1254,0.0488758516
1255,0.0488758516
1256,0.0488758516
1257,0.0488758516
1258,0.0488758516
1259,0.0782013654
1260,0.0684261989
1261,0.0684261989
1262,0.0684261989
1263,0.0782013654
1264,0.0782013654
1265,0.0879765415
1266,0.0977517032
1267,0.0879765415
1268,0.0782013654
1269,0.0879765415
1270,0.0879765415
1271,0.0879765415
1272,0.0782013654
1273,0.0879765415
1274,0.0879765415
1275,0.1075268864
1276,0.1173020482
1277,0.1075268864
1278,0.1075268864
1279,0.0879765415
1280,0.0879765415
1281,0.1075268864
1282,0.0977517032
1283,0.0977517032
1284,0.0879765415
1285,0.0782013654
1286,0.0782013654
1287,0.0684261989
1288,0.0684261989
1289,0.0684261989
1290,0.0586510229
1291,0.0488758516
1292,0.0488758516
1293,0.0488758516
1294,0.0488758516
1295,0.0391006832
1296,0.0293255119
1297,0.0293255119
1298,0.0293255119
1299,0.0195503416
1300,0.0195503416
1301,0.0195503416
1302,0.0195503416
1303,0.0195503416
1304,0.0097751703
1305,0.0097751703
1306,0.0097751703
1307,0.0195503416
1308,0.0097751703
1309,0.0097751703
1310,0.0097751703
1311,0.0097751703
1312,0.0000000000
1313,0.0000000000
1314,0.0000000000
1315,0.0000000000
1316,0.0000000000
1317,0.0000000000
1318,0.0000000000
1319,0.0000000000
1320,0.0097751703
1321,0.0097751703
1322,0.0097751703
1323,0.0293255119
1324,0.0488758516
1325,0.0391006832
1326,0.0293255119
1327,0.0293255119
1328,0.0195503416
1329,0.0195503416
1330,0.0195503416
1331,0.0097751703
1332,0.0195503416
1333,0.0097751703
1334,0.0195503416
1335,0.0097751703
1336,0.0391006832
1337,0.0488758516
1338,0.0391006832
1339,0.0293255119
1340,0.0293255119
1341,0.0391006832
1342,0.0391006832
1343,0.0391006832
1344,0.0293255119
1345,0.0293255119
1346,0.0488758516
1347,0.0391006832
1348,0.0293255119
1349,0.0293255119
1350,0.0293255119
1351,0.0293255119
1352,0.0293255119
1353,0.0293255119
1354,0.0293255119
1355,0.0195503416
1356,0.0293255119
1357,0.0195503416
1358,0.0195503416
1359,0.0195503416
1360,0.0195503416
1361,0.0293255119
1362,0.0293255119
1363,0.0293255119
1364,0.0293255119
1365,0.0293255119
1366,0.0293255119
1367,0.0195503416
1368,0.0293255119
1369,0.0293255119
1370,0.0293255119
1371,0.0391006832
1372,0.0391006832
1373,0.0293255119
1374,0.0293255119
1375,0.0293255119
1376,0.0293255119
1377,0.0293255119
1378,0.0293255119
1379,0.0293255119
1380,0.0391006832
1381,0.0488758516
1382,0.0488758516
1383,0.0586510229
1384,0.0586510229
1385,0.0684261989
1386,0.0684261989
1387,0.0586510229
1388,0.0586510229
1389,0.0391006832
1390,0.0391006832
1391,0.0293255119
1392,0.0293255119
1393,0.0195503416
1394,0.0097751703
1395,0.0195503416
1396,0.0097751703
1397,0.0195503416
1398,0.0293255119
1399,0.0293255119
1400,0.0391006832
1401,0.0293255119
1402,0.0391006832
1403,0.0391006832
1404,0.0391006832
1405,0.0488758516
1406,0.0488758516
1407,0.0488758516
1408,0.0488758516
1409,0.0586510229
1410,0.0586510229
1411,0.0586510229
1412,0.0488758516
1413,0.0684261989
1414,0.0684261989
1415,0.0684261989
1416,0.0684261989
1417,0.0879765415
1418,0.0977517032
1419,0.1075268864
1420,0.0977517032
1421,0.1075268864
1422,0.0977517032
1423,0.0977517032
1424,0.1270772218
1425,0.1564027309
1426,0.1466275596
1427,0.1368523955
1428,0.1270772218
1429,0.1270772218
1430,0.1173020482
1431,0.1270772218
1432,0.1173020482
1433,0.1075268864
1434,0.1270772218
1435,0.1857282543
1436,0.1759530782
1437,0.1564027309
1438,0.1270772218
1439,0.1173020482
1440,0.1075268864
1441,0.1075268864
1442,0.1075268864
1443,0.0977517032
1444,0.1270772218
1445,0.1368523955
1446,0.1368523955
1447,0.1173020482
1448,0.1075268864
1449,0.0977517032
1450,0.0879765415
1451,0.0879765415
1452,0.1075268864
1453,0.1075268864
1454,0.1075268864
1455,0.1075268864
1456,0.0977517032
1457,0.0782013654
1458,0.0684261989
1459,0.0684261989
1460,0.0586510229
1461,0.0488758516
1462,0.0488758516
1463,0.0391006832
1464,0.0293255119
1465,0.0293255119
1466,0.0293255119
1467,0.0195503416
1468,0.0195503416
1469,0.0097751703
1470,0.0097751703
1471,0.0097751703
1472,0.0097751703
1473,0.0097751703
1474,0.0097751703
1475,0.0000000000
1476,0.0000000000
1477,0.0000000000
1478,0.0000000000
1479,0.0000000000
1480,0.0000000000
1481,0.0000000000
1482,0.0000000000
1483,0.0000000000
1484,0.0097751703
1485,0.0097751703
1486,0.0488758516
1487,0.0879765415
1488,0.0684261989
1489,0.0586510229
1490,0.0488758516
1491,0.0488758516
1492,0.0391006832
1493,0.0586510229
1494,0.0684261989
1495,0.0586510229
1496,0.0488758516
1497,0.0488758516
1498,0.0488758516
1499,0.0391006832
1500,0.0391006832
1501,0.0391006832
1502,0.0391006832
1503,0.0488758516
1504,0.0391006832
1505,0.0293255119
1506,0.0293255119
1507,0.0293255119
1508,0.0293255119
1509,0.0293255119
1510,0.0195503416
1511,0.0195503416
1512,0.0097751703
1513,0.0097751703
1514,0.0097751703
1515,0.0195503416
1516,0.0097751703
1517,0.0097751703
1518,0.0195503416
1519,0.0195503416
1520,0.0293255119
1521,0.0293255119
1522,0.0293255119
1523,0.0488758516
1524,0.0391006832
1525,0.0391006832
1526,0.0391006832
1527,0.0293255119
1528,0.0293255119
1529,0.0293255119
1530,0.0195503416
1531,0.0293255119
1532,0.0293255119
1533,0.0195503416
1534,0.0195503416
1535,0.0195503416
1536,0.0195503416
1537,0.0195503416
1538,0.0293255119
1539,0.0293255119
1540,0.0293255119
1541,0.0195503416
1542,0.0293255119
1543,0.0293255119
1544,0.0293255119
1545,0.0293255119
1546,0.0293255119
1547,0.0293255119
1548,0.0488758516
1549,0.0488758516
1550,0.0488758516
1551,0.0391006832
1552,0.0293255119
1553,0.0293255119
1554,0.0195503416
1555,0.0195503416
1556,0.0195503416
1557,0.0195503416
1558,0.0195503416
1559,0.0195503416
1560,0.0293255119
1561,0.0293255119
1562,0.0195503416
1563,0.0293255119
1564,0.0195503416
1565,0.0195503416
1566,0.0293255119
1567,0.0293255119
1568,0.0293255119
1569,0.0293255119
1570,0.0391006832
1571,0.0293255119
1572,0.0391006832
1573,0.0293255119
1574,0.0293255119
1575,0.0391006832
1576,0.0293255119
1577,0.0391006832
1578,0.0488758516
1579,0.0488758516
1580,0.0488758516
1581,0.0488758516
1582,0.0488758516
1583,0.0684261989
1584,0.0684261989
1585,0.0879765415
1586,0.0879765415
1587,0.0879765415
1588,0.0879765415
1589,0.0782013654
1590,0.0782013654
1591,0.0684261989
1592,0.0684261989
1593,0.0684261989
1594,0.0782013654
1595,0.0684261989
1596,0.0684261989
1597,0.1368523955
1598,0.1173020482
1599,0.1075268864
1600,0.0879765415
1601,0.0782013654
1602,0.0782013654
1603,0.0977517032
1604,0.0879765415
1605,0.0782013654
1606,0.0684261989
1607,0.0586510229
1608,0.0586510229
1609,0.0586510229
1610,0.0488758516
1611,0.0488758516
1612,0.0488758516
1613,0.0391006832
1614,0.0488758516
1615,0.0391006832
1616,0.0391006832
1617,0.0391006832
1618,0.0293255119
1619,0.0391006832
1620,0.0293255119
1621,0.0195503416
1622,0.0195503416
1623,0.0195503416
1624,0.0195503416
1625,0.0195503416
1626,0.0195503416
1627,0.0195503416
1628,0.0195503416
1629,0.0097751703
1630,0.0097751703
1631,0.0097751703
1632,0.0097751703
1633,0.0097751703
1634,0.0097751703
1635,0.0000000000
1636,0.0097751703
1637,0.0097751703
1638,0.0097751703
1639,0.0097751703
1640,0.0293255119
1641,0.0586510229
1642,0.0684261989
1643,0.0684261989
1644,0.0488758516
1645,0.0391006832
1646,0.0391006832
1647,0.0293255119
1648,0.0391006832
1649,0.0586510229
1650,0.0586510229
1651,0.0586510229
1652,0.0586510229
1653,0.0488758516
1654,0.0488758516
1655,0.0293255119
1656,0.0293255119
1657,0.0391006832
1658,0.0391006832
1659,0.0391006832
1660,0.0391006832
1661,0.0391006832
1662,0.0391006832
1663,0.0391006832
1664,0.0293255119
1665,0.0293255119
1666,0.0293255119
1667,0.0293255119
1668,0.0195503416
1669,0.0195503416
1670,0.0097751703
1671,0.0097751703
1672,0.0195503416
1673,0.0195503416
1674,0.0195503416
1675,0.0391006832
1676,0.0391006832
1677,0.0293255119
1678,0.0293255119
1679,0.0293255119
1680,0.0195503416
1681,0.0195503416
1682,0.0195503416
1683,0.0195503416
1684,0.0195503416
1685,0.0195503416
1686,0.0195503416
1687,0.0195503416
1688,0.0195503416
1689,0.0097751703
1690,0.0097751703
1691,0.0097751703
1692,0.0195503416
1693,0.0195503416
1694,0.0195503416
1695,0.0293255119
1696,0.0293255119
1697,0.0391006832
1698,0.0293255119
1699,0.0195503416
1700,0.0195503416
1701,0.0097751703
1702,0.0097751703
1703,0.0097751703
1704,0.0097751703
1705,0.0097751703
1706,0.0097751703
1707,0.0097751703
1708,0.0097751703
1709,0.0097751703
1710,0.0097751703
1711,0.0195503416
1712,0.0293255119
1713,0.0293255119
1714,0.0293255119
1715,0.0195503416
1716,0.0195503416
1717,0.0195503416
1718,0.0195503416
1719,0.0293255119
1720,0.0293255119
1721,0.0293255119
1722,0.0391006832
1723,0.0488758516
1724,0.0488758516
1725,0.0391006832
1726,0.0391006832
1727,0.0391006832
1728,0.0488758516
1729,0.0391006832
1730,0.0391006832
1731,0.0586510229
1732,0.0586510229
1733,0.0586510229
1734,0.0488758516
1735,0.0488758516
1736,0.0586510229
1737,0.0586510229
1738,0.0586510229
1739,0.0586510229
1740,0.0782013654
1741,0.0782013654
1742,0.0782013654
1743,0.0782013654
1744,0.0782013654
1745,0.0586510229
1746,0.0684261989
1747,0.0684261989
1748,0.0586510229
1749,0.0586510229
1750,0.0586510229
1751,0.0782013654
1752,0.0977517032
1753,0.0879765415
1754,0.0879765415
1755,0.0879765415
1756,0.0782013654
1757,0.0782013654
1758,0.1075268864
1759,0.1075268864
1760,0.0977517032
1761,0.0879765415
1762,0.0782013654
1763,0.1368523955
1764,0.1759530782
1765,0.2834799575
1766,0.2639296054
1767,0.2248289346
1768,0.2248289346
1769,0.1857282543
1770,0.1564027309
1771,0.1368523955
1772,0.1075268864
1773,0.0879765415
1774,0.0879765415
1775,0.0879765415
1776,0.0684261989
1777,0.0586510229
1778,0.0586510229
1779,0.0586510229
1780,0.0586510229
1781,0.0488758516
1782,0.0391006832
1783,0.0293255119
1784,0.0293255119
1785,0.0293255119
1786,0.0195503416
1787,0.0195503416
1788,0.0195503416
1789,0.0195503416
1790,0.0195503416
1791,0.0097751703
1792,0.0097751703
1793,0.0097751703
1794,0.0097751703
1795,0.0097751703
1796,0.0097751703
1797,0.0097751703
1798,0.0097751703
1799,0.0097751703
1800,0.0391006832
1801,0.1173020482
1802,0.0977517032
1803,0.0879765415
1804,0.0782013654
1805,0.0684261989
1806,0.0586510229
1807,0.0586510229
1808,0.0488758516
1809,0.0488758516
1810,0.0391006832
1811,0.0391006832
1812,0.0586510229
1813,0.0488758516
1814,0.0488758516
1815,0.0391006832
1816,0.0293255119
1817,0.0293255119
1818,0.0293255119
1819,0.0391006832
1820,0.0488758516
1821,0.0488758516
1822,0.0391006832
1823,0.0391006832
1824,0.0293255119
1825,0.0293255119
1826,0.0293255119
1827,0.0195503416
1828,0.0195503416
1829,0.0293255119
1830,0.0195503416
1831,0.0195503416
1832,0.0195503416
1833,0.0195503416
1834,0.0293255119
1835,0.0195503416
1836,0.0195503416
1837,0.0195503416
1838,0.0195503416
1839,0.0195503416
1840,0.0195503416
1841,0.0293255119
1842,0.0293255119
1843,0.0293255119
1844,0.0293255119
1845,0.0293255119
1846,0.0293255119
1847,0.0195503416
1848,0.0293255119
1849,0.0293255119
1850,0.0293255119
1851,0.0293255119
1852,0.0195503416
1853,0.0293255119
1854,0.0195503416
1855,0.0195503416
1856,0.0195503416
1857,0.0195503416
1858,0.0195503416
1859,0.0195503416
1860,0.0293255119
1861,0.0293255119
1862,0.0391006832
1863,0.0391006832
1864,0.0391006832
1865,0.0391006832
1866,0.0391006832
1867,0.0391006832
1868,0.0391006832
1869,0.0391006832
1870,0.0293255119
1871,0.0293255119
1872,0.0293255119
1873,0.0195503416
1874,0.0293255119
1875,0.0293255119
1876,0.0293255119
1877,0.0391006832
1878,0.0391006832
1879,0.0293255119
1880,0.0293255119
1881,0.0391006832
1882,0.0488758516
1883,0.0488758516
1884,0.0586510229
1885,0.0488758516
1886,0.0488758516
1887,0.0586510229
1888,0.0488758516
1889,0.0488758516
1890,0.0488758516
1891,0.0391006832
1892,0.0391006832
1893,0.0293255119
1894,0.0391006832
1895,0.0391006832
1896,0.0488758516
1897,0.0488758516
1898,0.0586510229
1899,0.0586510229
1900,0.0684261989
1901,0.0684261989
1902,0.0684261989
1903,0.0684261989
1904,0.0684261989
1905,0.0879765415
1906,0.0879765415
1907,0.0879765415
1908,0.0879765415
1909,0.0977517032
1910,0.0977517032
1911,0.0977517032
1912,0.0977517032
1913,0.0977517032
1914,0.1661779165
1915,0.1857282543
1916,0.2150537729
1917,0.1857282543
1918,0.2052785873
1919,0.1857282543
1920,0.1661779165
1921,0.1368523955
1922,0.1173020482
1923,0.1173020482
1924,0.1075268864
1925,0.0977517032
1926,0.0879765415
1927,0.0782013654
1928,0.0684261989
1929,0.0684261989
1930,0.0684261989
1931,0.0586510229
1932,0.0488758516
1933,0.0391006832
1934,0.0391006832
1935,0.0391006832
1936,0.0391006832
1937,0.0293255119
1938,0.0195503416
1939,0.0293255119
1940,0.0293255119
1941,0.0293255119
1942,0.0195503416
1943,0.0195503416
1944,0.0195503416
1945,0.0097751703
1946,0.0097751703
1947,0.0097751703
1948,0.0097751703
1949,0.0097751703
1950,0.0097751703
1951,0.0097751703
1952,0.0000000000
1953,0.0000000000
1954,0.0000000000
1955,0.0000000000
1956,0.0000000000
1957,0.0000000000
1958,0.0000000000
1959,0.0000000000
1960,0.0195503416
1961,0.0488758516
1962,0.0586510229
1963,0.0488758516
1964,0.0488758516
1965,0.0391006832
1966,0.0391006832
1967,0.0293255119
1968,0.0293255119
1969,0.0391006832
1970,0.0586510229
1971,0.0586510229
1972,0.0586510229
1973,0.0488758516
1974,0.0488758516
1975,0.0488758516
1976,0.0391006832
1977,0.0293255119
1978,0.0195503416
1979,0.0195503416
1980,0.0391006832
1981,0.0586510229
1982,0.0488758516
1983,0.0488758516
1984,0.0488758516
1985,0.0488758516
1986,0.0488758516
1987,0.0488758516
1988,0.0488758516
1989,0.0391006832
1990,0.0293255119
1991,0.0293255119
1992,0.0293255119
1993,0.0195503416
1994,0.0195503416
1995,0.0195503416
1996,0.0195503416
1997,0.0391006832
1998,0.0391006832
1999,0.0293255119
2000,0.0391006832
2001,1.6422286987
2002,1.2903225421
2003,1.0068426132
2004,0.7917888641
2005,0.6158357620
2006,0.4887585639
2007,0.3812316703
2008,0.2932551193
2009,0.2346040964
2010,0.1857282543
2011,0.1466275596
2012,0.1075268864
2013,0.0782013654
2014,0.0684261989
2015,0.0488758516
2016,0.0391006832
2017,0.0293255119
2018,0.0195503416
2019,0.0097751703
2020,0.0097751703
2021,0.0000000000
2022,0.0000000000
2023,0.0000000000
2024,0.0000000000
2025,0.0000000000
2026,0.0000000000
2027,0.0000000000
2028,0.0000000000
2029,0.0000000000
2030,0.0000000000
2031,0.0000000000
2032,0.0000000000
2033,0.0000000000
2034,0.0000000000
2035,0.0000000000
2036,0.0000000000
2037,0.0000000000
2038,0.0000000000
2039,0.0000000000
2040,0.0000000000
2041,0.0000000000
2042,0.0000000000
2043,0.0000000000
2044,0.0000000000
2045,0.0000000000
2046,0.0000000000
2047,0.0000000000
2048,0.0000000000
2049,0.0000000000
2050,0.0000000000
2051,0.0000000000
2052,0.0000000000
2053,0.0000000000
2054,0.0000000000
2055,0.0000000000
2056,0.0000000000
2057,0.0000000000
2058,0.0000000000
2059,0.0000000000
2060,0.0000000000
2061,0.0000000000
2062,0.0000000000
2063,0.0000000000
2064,0.0000000000
2065,0.0000000000
2066,0.0000000000
2067,0.0000000000
2068,0.0000000000
2069,0.0000000000
2070,0.0000000000
2071,0.0000000000
2072,0.0000000000
2073,0.0000000000
2074,0.0000000000
2075,0.0000000000
2076,0.0000000000
2077,0.0000000000
2078,0.0000000000
2079,0.0000000000
2080,0.0000000000
2081,0.0000000000
2082,0.0000000000
2083,0.0000000000
2084,0.0000000000
2085,0.0000000000
2086,0.0000000000
2087,0.0000000000
2088,0.0000000000
2089,0.0000000000
2090,0.0000000000
2091,0.0000000000
2092,0.0000000000
2093,0.0000000000
2094,0.0000000000
2095,0.0000000000
2096,0.0000000000
2097,0.0000000000
2098,0.0000000000
2099,0.0000000000
2100,0.0000000000
2101,0.0000000000
2102,0.0000000000
2103,0.0000000000
2104,0.0000000000
2105,0.0000000000
2106,0.0000000000
2107,0.0000000000
2108,0.0000000000
2109,0.0000000000
2110,0.0000000000
2111,0.0000000000
2112,0.0000000000
2113,0.0000000000
2114,0.0000000000
2115,0.0000000000
2116,0.0000000000
2117,0.0000000000
2118,0.0000000000
2119,0.0000000000
2120,0.0000000000
2121,0.0000000000
2122,0.0000000000
2123,0.0000000000
2124,0.0000000000
2125,0.0000000000
2126,0.0000000000
2127,0.0000000000
2128,0.0000000000
2129,0.0000000000
2130,0.0000000000
2131,0.0000000000
2132,0.0000000000
2133,0.0000000000
2134,0.0000000000
2135,0.0000000000
2136,0.0000000000
2137,0.0000000000
2138,0.0000000000
2139,0.0000000000
2140,0.0000000000
2141,0.0000000000
2142,0.0000000000
2143,0.0000000000
2144,0.0000000000
2145,0.0000000000
2146,0.0000000000
2147,0.0000000000
2148,0.0000000000
2149,0.0000000000
2150,0.0000000000
2151,0.0000000000
2152,0.0000000000
2153,0.0000000000
2154,0.0000000000
2155,0.0000000000
2156,0.0000000000
2157,0.0000000000
2158,0.0000000000
2159,0.0000000000
2160,0.0000000000
2161,0.0000000000
2162,0.0000000000
2163,0.0000000000
2164,0.0000000000
2165,0.0000000000
2166,0.0000000000
2167,0.0000000000
2168,0.0000000000
2169,0.0000000000
2170,0.0000000000
2171,0.0000000000
2172,0.0000000000
2173,0.0000000000
2174,0.0000000000
2175,0.0000000000
2176,0.0000000000
2177,0.0000000000
2178,0.0000000000
2179,0.0000000000
2180,0.0000000000
2181,0.0000000000
2182,0.0000000000
2183,0.0000000000
2184,0.0000000000
2185,0.0000000000
2186,0.0000000000
2187,0.0000000000
2188,0.0000000000
2189,0.0000000000
2190,0.0000000000
2191,0.0000000000
2192,0.0000000000
2193,0.0000000000
2194,0.0000000000
2195,0.0000000000
2196,0.0000000000
2197,0.0000000000
2198,0.0000000000
2199,0.0000000000
2200,0.0000000000
2201,0.0000000000
2202,0.0000000000
2203,0.0000000000
2204,0.0000000000
2205,0.0000000000
2206,0.0000000000
2207,0.0000000000
2208,0.0000000000
2209,0.0000000000
2210,0.0000000000
2211,0.0000000000
2212,0.0000000000
2213,0.0000000000
2214,0.0000000000
2215,0.0000000000
2216,0.0000000000
2217,0.0000000000
2218,0.0000000000
2219,0.0000000000
2220,0.0000000000
2221,0.0000000000
2222,0.0000000000
2223,0.0000000000
2224,0.0000000000
2225,0.0000000000
2226,0.0000000000
2227,0.0000000000
2228,0.0000000000
2229,0.0000000000
2230,0.0000000000
2231,0.0000000000
2232,0.0000000000
2233,0.0000000000
2234,0.0000000000
2235,0.0000000000
2236,0.0000000000
2237,0.0000000000
2238,0.0000000000
2239,0.0000000000
2240,0.0000000000
2241,0.0000000000
2242,0.0000000000
2243,0.0000000000
2244,0.0000000000
2245,0.0000000000
2246,0.0000000000
2247,0.0000000000
2248,0.0000000000
2249,0.0000000000
2250,0.0000000000
2251,0.0000000000
2252,0.0000000000
2253,0.0000000000
2254,0.0000000000
2255,0.0000000000
2256,0.0000000000
2257,0.0000000000
2258,0.0000000000
2259,0.0000000000
2260,0.0000000000
2261,0.0000000000
2262,0.0000000000
2263,0.0000000000
2264,0.0000000000
2265,0.0000000000
2266,0.0000000000
2267,0.0000000000
2268,0.0000000000
2269,0.0000000000
2270,0.0000000000
2271,0.0000000000
2272,0.0000000000
2273,0.0000000000
2274,0.0000000000
2275,0.0000000000
2276,0.0000000000
2277,0.0000000000
2278,0.0000000000
2279,0.0000000000
2280,0.0000000000
2281,0.0000000000
2282,0.0000000000
2283,0.0000000000
2284,0.0000000000
2285,0.0000000000
2286,0.0000000000
2287,0.0000000000
2288,0.0000000000
2289,0.0000000000
2290,0.0000000000
2291,0.0000000000
2292,0.0000000000
2293,0.0000000000
2294,0.0000000000
2295,0.0000000000
2296,0.0000000000
2297,0.0000000000
2298,0.0000000000
2299,0.0000000000
2300,0.0000000000
2301,0.0000000000
2302,0.0000000000
2303,0.0000000000
2304,0.0000000000
2305,0.0000000000
2306,0.0000000000
2307,0.0000000000
2308,0.0000000000
2309,0.0000000000
2310,0.0000000000
2311,0.0000000000
2312,0.0000000000
2313,0.0000000000
2314,0.0000000000
2315,0.0000000000
2316,0.0000000000
2317,0.0000000000
2318,0.0000000000
2319,0.0000000000
2320,0.0000000000
2321,0.0000000000
2322,0.0000000000
2323,0.0000000000
2324,0.0097751703
2325,0.0097751703
2326,0.0097751703
2327,0.0097751703
2328,0.0097751703
2329,0.0000000000
2330,0.0000000000
2331,0.0000000000
2332,0.0000000000
2333,0.0000000000
2334,0.0000000000
2335,0.0000000000
2336,0.0000000000
2337,0.0000000000
2338,0.0000000000
2339,0.0000000000
2340,0.0000000000
2341,0.0000000000
2342,0.0000000000
2343,0.0000000000
2344,0.0000000000
2345,0.0000000000
2346,0.0000000000
2347,0.0000000000
2348,0.0000000000
2349,0.0000000000
2350,0.0000000000
2351,0.0000000000
2352,0.0000000000
2353,0.0000000000
2354,0.0000000000
2355,0.0000000000
2356,0.0000000000
2357,0.0000000000
2358,0.0000000000
2359,0.0000000000
2360,0.0000000000
2361,0.0000000000
2362,0.0000000000
2363,0.0000000000
2364,0.0000000000
2365,0.0000000000
2366,0.0000000000
2367,0.0000000000
2368,0.0000000000
2369,0.0000000000
2370,0.0000000000
2371,0.0000000000
2372,0.0000000000
2373,0.0000000000
2374,0.0000000000
2375,0.0000000000
2376,0.0000000000
2377,0.0000000000
2378,0.0000000000
2379,0.0000000000
2380,0.0000000000
2381,0.0000000000
2382,0.0000000000
2383,0.0000000000
2384,0.0000000000
2385,0.0000000000
2386,0.0000000000
2387,0.0000000000
2388,0.0000000000
2389,0.0000000000
2390,0.0000000000
2391,0.0000000000
2392,0.0000000000
2393,0.0000000000
2394,0.0000000000
2395,0.0000000000
2396,0.0000000000
2397,0.0000000000
2398,0.0000000000
2399,0.0000000000
2400,0.0000000000
2401,0.0000000000
2402,0.0000000000
2403,0.0000000000
2404,0.0000000000
2405,0.0000000000
2406,0.0000000000
2407,0.0000000000
2408,0.0000000000
2409,0.0000000000
2410,0.0000000000
2411,0.0000000000
2412,0.0000000000
2413,0.0000000000
2414,0.0000000000
2415,0.0000000000
2416,0.0000000000
2417,0.0000000000
2418,0.0000000000
2419,0.0000000000
2420,0.0000000000
2421,0.0000000000
2422,0.0000000000
2423,0.0000000000
2424,0.0000000000
2425,0.0000000000
2426,0.0000000000
2427,0.0000000000
2428,0.0000000000
2429,0.0000000000
2430,0.0000000000
2431,0.0000000000
